ECG
1.093774634872049
1.0892154939446668
1.0787373098757296
1.062269448510674
1.039890995893553
1.0120302188268195
0.979118414502263
0.9415878353770911
0.8998716891739326
0.8544041388808368
0.8056203027512739
0.7539592233250766
0.6998730998589321
0.643818220795893
0.5862518298466635
0.5276321259873685
0.46841826345955323
0.40907035177018347
0.3500494556916454
0.29181759526174655
0.2348377457837142
0.17957089557384415
0.1264016944497308
0.0754975209817793
0.026987880684237867
-0.019013373064550174
-0.06240839528609956
-0.10311534940178346
-0.14106840723283381
-0.17621774900034012
-0.20852956332525055
-0.2379798593854427
-0.2645338119925777
-0.28816532738274175
-0.30886432005925196
-0.3266367129252839
-0.34150443728387175
-0.3535054328379076
-0.3626936476901424
-0.3691390383431847
-0.3729275696995019
-0.37417347407452334
-0.3730616310387316
-0.36980814540648677
-0.36464513103245455
-0.3578207101711598
-0.34959901347698524
-0.3402601800041724
-0.3300940268146123
-0.31929428429358675
-0.30805234272919835
-0.29655749753256255
-0.2849259629492253
-0.2732466025921122
-0.26159925371426535
-0.25005472867688033
-0.23867481494930576
-0.2275122751090433
-0.21661084684174772
-0.20600524294122705
-0.1957211513094422
-0.18578218610166256
-0.17623564514417453
-0.16712941332576886
-0.15850235194039627
-0.15038429739016052
-0.14279606118531854
-0.13574942994428024
-0.12924716539360895
-0.12328300436802059
-0.11784165881038464
-0.11290137874921723
-0.1084437817766189
-0.10444520107847742
-0.1008729457303515
-0.09768529991595298
-0.09483152292714683
-0.09225184916395086
-0.08988246906021335
-0.08777467070818418
-0.08596980538101356
-0.08446676825086645
-0.0832222138630644
-0.08218016975600108
-0.08128533692152898
-0.08048309385217109
-0.07971949654112143
-0.0789412784822449
-0.07809585067007753
-0.07713130159982602
-0.07599639726736807
-0.07465611393005847
-0.07315541909083557
-0.07156520757911351
-0.06995706239525372
-0.06840324404028846
-0.0669766905159209
-0.06575101732452521
-0.06480051746914649
-0.06420016145350065
-0.0640255972819745
-0.06432690299827719
-0.06501708618258054
-0.06596478747211804
-0.06703929580553274
-0.06811057762213876
-0.06904927686192107
-0.06972671496553551
-0.07001489087430884
-0.06978648103023882
-0.06891483937599402
-0.06730645016812925
-0.06504325324140059
-0.06225421286746526
-0.05906955998077976
-0.055624648766745846
-0.052054876361101815
-0.048495682849922686
-0.04508255126962016
-0.041951007606942495
-0.03923662079897462
-0.0370470187504788
-0.035334715667060465
-0.033998799573423596
-0.03293835160809226
-0.03205249585992742
-0.0312403993681265
-0.030401272122223537
-0.029434367062089475
-0.028238980077931596
-0.026714450010293968
-0.024777495528796822
-0.022443694162954206
-0.019763624777940306
-0.016787949658290974
-0.013567374038879101
-0.010152646104913484
-0.006594556991940318
-0.0029439407858419236
0.0007483254771623801
0.004431321810517138
0.008060781577353831
0.011631635187396136
0.015153019686022631
0.01863404930105817
0.02208379530999088
0.025511286039972596
0.02892550686781803
0.032335400220005334
0.03574986557267621
0.039177759451635735
0.04262699447413153
0.046100011764344855
0.04959718618943276
0.05311884622933294
0.05666527741364633
0.06023672232163727
0.06383338058223358
0.06745540887402611
0.07110292092526942
0.07477598751388115
0.07847555226235649
0.08220819013003672
0.08598360417901228
0.08982458031573082
0.09374218945348037
0.0977423207561998
0.1018308907280521
0.10601384321342566
0.11029714939693282
0.1146868078034117
0.11918677265392154
0.12378782422656806
0.12847558843570467
0.13323570628189732
0.1380538461059369
0.1429157035888382
0.14780700175184175
0.15271349095641226
0.15762094890423917
0.16251518063723663
0.16738459441024758
0.17223450962590106
0.17707707287791333
0.18192447677662066
0.18678894127258447
0.19168271365659054
0.19661806855964947
0.20160730795299667
0.20666276114809243
0.2117967847966215
0.21701568760294915
0.222284840089622
0.22755271328203072
0.2327677520321919
0.23787842853234703
0.242833242314962
0.24758072025272768
0.2520694165585594
0.2562479127855976
0.26006481782720714
0.2634824095988559
0.26655763660076953
0.2693875877446249
0.2720695073240146
0.2747006592947061
0.27737831820482184
0.28019978091510245
0.2832623716255471
0.28666344187637943
0.2905003705480484
0.29485069141466014
0.2996500888343415
0.30477258748723446
0.3100919869400321
0.3154821140996537
0.32081682321324173
0.32596999586816455
0.3308155409920144
0.33522739485260894
0.3390795210579902
0.342265335374396
0.3448210147955492
0.3468464149700368
0.3484417122832051
0.34970711046062547
0.350742840568094
0.35164916101163113
0.3525263575374826
0.3534747432321183
0.35459465852223343
0.35597337407135343
0.35759912030168034
0.35941484778321503
0.36136330059052
0.36338725013838263
0.3654294951818148
0.3674328618160534
0.36934020347656016
0.3710944009390209
0.3726383623193468
0.373920646513674
0.3749336347558478
0.3756902743531741
0.3762036580064573
0.37648690575672655
0.3765531649852357
0.3764156104134631
0.376087444103112
0.3755818954561103
0.374912221214611
0.37409124503987184
0.3731186773055576
0.37200005465586816
0.3707493531044102
0.3693805166175049
0.3679074571141863
0.36634405446620366
0.3647041564980186
0.36300157898680735
0.3612501056624602
0.35946061337224267
0.35762019907462955
0.355704219797158
0.3536879182434969
0.35154650507002927
0.3492551588858518
0.3467890262527748
0.34412322168532294
0.34123282765073404
0.33809289456896063
0.33468286775717965
0.3310198348881962
0.327139892772877
0.3230792531884024
0.31887409586466714
0.31456056848427943
0.3101747866825614
0.30575283404754905
0.3013307621199922
0.2969445903933546
0.29262624543643057
0.2883720102623037
0.2841596859735601
0.27996688572062595
0.2757711906066404
0.27155014968745705
0.2672812799716432
0.2629420664204798
0.2585099619479624
0.2539623874207991
0.24928014694540263
0.2444748819331518
0.23957459436751924
0.23460740525518234
0.22960140355553244
0.22458464618067436
0.2195851579954272
0.21463093181732343
0.20974992841660994
0.20497007651624669
0.20031562760606345
0.19577683421165756
0.19132543012808015
0.18693293725087592
0.18257086679793313
0.17821070328226032
0.17382389916958021
0.16938187487832976
0.16485601877965908
0.16021768719743248
0.15544162809688356
0.15053545604152097
0.14552510320812892
0.1404366689354016
0.13529622051474746
0.1301297931902886
0.12496339015886111
0.11982298257001472
0.11473450952601318
0.10972387808183388
0.10481552982475476
0.10001966669263623
0.09533833804861558
0.09077346594159792
0.08632694037320197
0.0820006192977603
0.07779632862231928
0.073715862206639
0.06976098186319367
0.06593341735717156
0.06223364977434266
0.058649686123765296
0.055162214588012536
0.05175179916892974
0.04839897182107616
0.0450842324517245
0.041788048920862166
0.03849085704118938
0.03517306057812103
0.03181503124978533
0.02839894367853383
0.024926307686148595
0.02141022254066062
0.017863913438107552
0.014300573527240942
0.010733363909525558
0.007175413639140837
0.003639819722979466
0.00013964712064817343
-0.003312071255532223
-0.006703096777074986
-0.010029819204000204
-0.01329367985048533
-0.016496116528048353
-0.019638559219330262
-0.022722430078094567
-0.025749143429228107
-0.028720105768740147
-0.03163671576376281
-0.03450036425255109
-0.03731092263506271
-0.040051244353668115
-0.04269346199195029
-0.04520953313270627
-0.047571407529856
-0.04975102710844191
-0.05172032596462964
-0.053451230365707335
-0.054915658750086034
-0.056085521727299525
-0.05693726663528337
-0.05750016346146121
-0.05783755854396953
-0.058013358461728164
-0.05809146196477931
-0.058135759974288236
-0.05821013558254286
-0.058378464052953896
-0.05870461282005488
-0.05925244148950244
-0.060080320370519746
-0.061180760610972426
-0.06250274738342182
-0.06399448485431877
-0.06560416936123727
-0.06727998941287366
-0.06897012568904735
-0.07062275104070058
-0.07218603048989851
-0.07360812122982875
-0.07484074021633624
-0.07587990371994965
-0.07675161128094525
-0.07748242159557468
-0.07809888553121266
-0.07862754612635636
-0.07909493859062589
-0.07952759030476445
-0.07995202082063756
-0.0803947418612338
-0.08088028935654289
-0.08140791534322857
-0.08195934066369875
-0.08251592642918498
-0.08305903053443946
-0.08357002149492773
-0.08403026460963632
-0.08442111734867425
-0.08472392781881313
-0.0849200274073524
-0.08499258580904315
-0.08494933855929467
-0.08481546136250477
-0.08461649369103687
-0.08437796718837716
-0.08412540566913448
-0.08388432511904093
-0.08368023369495073
-0.08353863172484166
-0.08348501170781365
-0.08354303097858089
-0.08371120781051655
-0.0839697785420879
-0.08429855956743833
-0.08467735945183426
-0.08508597893166492
-0.08550421091444203
-0.08591184047880077
-0.08628864487449842
-0.08661439352241555
-0.08686945429736428
-0.0870428209039873
-0.08712990823916746
-0.0871262766750503
-0.08702747875490412
-0.08682905919312002
-0.08652655487521206
-0.08611549485781683
-0.08559140036869405
-0.08494978480672596
-0.08418743550939412
-0.08332003995524007
-0.0823776957826372
-0.08139085583137694
-0.08038996511237372
-0.07940546080766449
-0.07846777227040926
-0.07760732102489068
-0.07685452076651428
-0.07623977736180855
-0.07579162237418371
-0.07551596356921288
-0.07540249613590878
-0.07544050126436122
-0.07561925717769902
-0.07592803913208977
-0.07635611941673974
-0.07689276735389385
-0.07752724929883582
-0.07824882863988844
-0.07904618248406356
-0.07989873844120587
-0.0807785283306194
-0.08165737425913767
-0.0825070953666327
-0.08329950782601547
-0.08400642484323556
-0.0845996566572814
-0.08505101054018027
-0.08533229079699801
-0.0854166657323147
-0.08529977961790358
-0.08499567605666794
-0.08451893707615259
-0.08388414173694153
-0.08310586613265702
-0.08219868338996048
-0.0811771636685519
-0.08005587416117026
-0.07884937909359278
-0.07757283871735035
-0.07625163400563918
-0.07491971248652825
-0.07361128364652833
-0.07236055400518897
-0.07120172711509842
-0.07016900356188391
-0.0692965809642112
-0.0686186539737848
-0.06816941427534808
-0.06798065224212188
-0.06804164420841116
-0.06830518034207737
-0.06872286391750254
-0.06924629524210706
-0.0698270716563505
-0.07041678753373082
-0.07096703428078499
-0.07142940033708872
-0.07175547117525632
-0.0718988157133387
-0.07184958554044073
-0.07163007580603008
-0.07126367262360174
-0.07077375913968936
-0.07018371493076048
-0.06951691419390181
-0.06879672755613371
-0.06804652267751547
-0.06728966425114491
-0.06654902305384829
-0.06583806564577224
-0.06516179828180287
-0.06452492274561931
-0.06393213785393947
-0.06338813945652033
-0.06289762043615732
-0.062465270708684816
-0.06209577722297582
-0.06179382396094214
-0.0615636688034446
-0.06140113714452541
-0.061294287703496035
-0.06123088654370197
-0.06119869676152747
-0.06118547848639531
-0.061178988880767435
-0.06116698214014416
-0.06113720949306487
-0.06107741920110743
-0.06097566635135743
-0.06082642774393545
-0.060630235236815315
-0.06038785410305373
-0.06010004664874631
-0.05976757221302697
-0.05939118716806884
-0.05897164491908345
-0.058509695904321445
-0.05800608759507194
-0.05746178625924361
-0.05688254611881724
-0.056278743390892914
-0.05566093988446701
-0.055039694441574374
-0.05442556293728874
-0.053829098279722404
-0.053260850410026754
-0.05273136630239176
-0.052251189964046124
-0.05183059117780133
-0.051473727845929726
-0.051178743883705004
-0.05094856782095438
-0.05078382420471055
-0.05068091270142237
-0.05063623632216904
-0.05064620142265942
-0.05070721770323298
-0.05081569820885921
-0.0509676274055877
-0.051148845539603374
-0.051334928690335985
-0.051501000367879246
-0.05162218742695742
-0.051673620066924594
-0.05163043183176513
-0.05146775961009354
-0.05116074363515409
-0.05068452748482171
-0.05001550703731215
-0.04916071583776086
-0.0481589243591394
-0.04705037531260589
-0.04587531475394851
-0.04467399208358584
-0.04348666004656647
-0.042353574732568885
-0.04131499557590203
-0.040411185355504774
-0.03968087538089542
-0.03912346592426624
-0.038696645550973005
-0.03835609470758504
-0.03805749718530214
-0.037756540119953615
-0.03740891399199952
-0.03697031262652982
-0.03639643319326432
-0.035642976206553274
-0.03466686174376252
-0.03345760805780313
-0.03204012689517482
-0.03044110981574153
-0.028687251723997623
-0.026805250869067352
-0.024821808844705084
-0.02276363058929568
-0.020657424385853593
-0.018529901862023773
-0.016407167737102612
-0.014298212187067075
-0.012193000341610225
-0.010080506979995784
-0.007949710226117093
-0.005789591548498058
-0.0035891346000338983
-0.0013373217372154309
0.0009768624990946669
0.003364430223403864
0.005836205459238664
0.008397579883423125
0.011047762625847848
0.013785620423562728
0.01661001513776854
0.019519805279228346
0.02251384601407493
0.025590989163811098
0.02875008320530953
0.03198997327081245
0.03530962122272843
0.03871168573478062
0.04220313364376402
0.04579117168391215
0.049483003244827836
0.05328582837148428
0.05720684376422415
0.06125702699851923
0.06545989712548363
0.06981494080986803
0.07431801997804258
0.07895912563959884
0.08372121871501079
0.0885869746283349
0.09353920305677231
0.09856084793066827
0.10363498743351257
0.1087448340019389
0.11387373432572608
0.11900516934779651
0.12412292601118959
0.12921676331778476
0.1342837055694551
0.1393213449673117
0.14432740796561008
0.1492997552717494
0.15423638184627403
0.15913541690287228
0.16399512390837676
0.16881390058276433
0.17359023362480253
0.17832112506218692
0.18300168631590444
0.1876270353224615
0.19219242427150893
0.19669323960584212
0.2011250020214001
0.2054833664672669
0.2097641221456704
0.21396319251198337
0.21807648040761377
0.22209419037941827
0.22599919149345868
0.2297739984689479
0.23340126027824326
0.23686376014684687
0.24014441555340454
0.243226278229707
0.24609253416068866
0.24872650358442877
0.25111187138262797
0.2532416068005742
0.2551208129308647
0.25675554056931416
0.25815197476488166
0.25931643481967076
0.26025537428892914
0.2609753809810491
0.261483176957567
0.2617856185331635
0.2618896312242383
0.26179954677883854
0.261516167684517
0.2610401734184613
0.2603723777110032
0.25951372854561866
0.2584653081589285
0.25722833304069725
0.25580415393383416
0.25419425583439265
0.25240016614058747
0.25041780585083934
0.24824047481079475
0.24587244977797063
0.24331837123168862
0.24058267332040545
0.23766958386171383
0.2345831243423422
0.23132710991815464
0.22790514941415088
0.22432070908143298
0.22058004249165322
0.2166934131294122
0.21267119544853694
0.20852355757198834
0.20426046129186437
0.1998916620693985
0.19542671264110434
0.19087497383721017
0.18624560376322477
0.18154756047540177
0.17678990849881304
0.17198195721639511
0.1671328448092345
0.16225150312755326
0.15734665769070946
0.15242682768719684
0.1475003259746447
0.14257525907981775
0.13765952719861693
0.13276083967669638
0.12788751838798856
0.12304888861149267
0.11825416670274355
0.11351236268641166
0.10883228025630357
0.10422251677536117
0.099691463275662
0.09524730445841958
0.090898018693983
0.0866512776042769
0.08250889449541539
0.0784639238014564
0.0745085017117224
0.07063455808467109
0.06683381644789624
0.06309779399812715
0.05941780160122895
0.05578494379220223
0.05219011877518364
0.04862413370388663
0.04508450622765007
0.04157926874600756
0.0381171695711601
0.03470675068444457
0.03135634773633345
0.028074090046435025
0.024867900603493046
0.021745496065387157
0.01871438675913279
0.015781887068278794
0.012955770710607857
0.01024466201482667
0.007657072904179163
0.005201308971044681
0.002903832512962238
0.0007978665106601465
-0.0011199494169165684
-0.002853550815716641
-0.004406815498544417
-0.005783703355142295
-0.006997705593091343
-0.008077853434382911
-0.009054551814409457
-0.009958147935419916
-0.010818931266518329
-0.01166713354366522
-0.012532928769676766
-0.013446433214224677
-0.014437705413836988
-0.015536596606269965
-0.016761897461788522
-0.01811400466781137
-0.01959151990900722
-0.021192987136900994
-0.022916892569873303
-0.024761664693160372
-0.02672567425885477
-0.02880723428590447
-0.031004600060113564
-0.03331613209767141
-0.035753021870452144
-0.03834841029501883
-0.041137532505951944
-0.04415556590468755
-0.04743763015951785
-0.05101878720559069
-0.054934041244909824
-0.05921833874633494
-0.06390656844558149
-0.06903325986147998
-0.0746071863913959
-0.08059210202932172
-0.08694716680435173
-0.09363148301243653
-0.10060409521638246
-0.10782399024585139
-0.11525009719736141
-0.12284128743428628
-0.1306281678556398
-0.138816481129611
-0.14718492639523217
-0.15553523153979015
-0.16368832337005867
-0.17147694380701292
-0.1787456498858286
-0.1853508137558826
-0.19116062268075315
-0.19605509093327758
-0.19992609548072932
-0.20267701188094966
-0.20419024706695263
-0.2042997871569317
-0.20284496911817904
-0.19967694503218794
-0.19465868209465262
-0.1876649623007354
-0.17858238006658964
-0.16730934355516816
-0.1537560760328885
-0.1378446407723012
-0.11951161717730739
-0.09871048611907222
-0.07540710632089337
-0.04957915162026973
-0.02121611096890116
0.009680711567311361
0.04309819680826594
0.07901141045965984
0.11738360311298907
0.15816601021020207
0.20127437979298304
0.24656695307799018
0.2938849458173522
0.3430577586489838
0.3939029770966022
0.44622637156972467
0.49982189736366667
0.5544716946595434
0.6099460656428353
0.6658723653056354
0.7214890150825489
0.776054948320214
0.8288919480120522
0.8793779635021252
0.9269471104851362
0.9710896710064293
1.0113520934619904
1.047336992598445
1.0787031495130617
1.1051653751150052
1.1264752173237522
1.142400980648572
1.1527623651337573
1.157435237174242
1.1563516295156
1.1494997412540486
1.1369239378364437
1.1187247510602836
1.0950588790737072
1.0661391995782088
1.0322368293090356
0.9936833616884236
0.9508670939397895
0.9042290596181758
0.8541659827957888
0.8012101780943987
0.7459376822088298
0.6888931647351576
0.6305899281707076
0.5715099667413288
0.51211414225563
0.45285377296272117
0.39415161223629036
0.3363990463512763
0.27995609448386843
0.2251514087115067
0.1722822740128814
0.1216146082679336
0.07338296225785591
0.02779049281647001
-0.014996212417201255
-0.054853307676894315
-0.09168981808259881
-0.12544613585305373
-0.15609402030574845
-0.18363659785692033
-0.20810836202155766
-0.22957517341339612
-0.24810150878649057
-0.26331376835748743
-0.2752654190514247
-0.2842031396955718
-0.2903662391617399
-0.2939859696568656
-0.29528552672301084
-0.2944800492373635
-0.2917766194122362
-0.2873742627950676
-0.2814639482684215
-0.2742286081579517
-0.2658480315025603
-0.2565052511762895
-0.24637682623097032
-0.2356312590535592
-0.2244289953661384
-0.21292242422591537
-0.201255878025223
-0.18956563249151973
-0.17797988927803512
-0.16661865524211605
-0.15557488966301714
-0.14488873353165285
-0.1345858193260661
-0.12468372285942515
-0.11519196328002343
-0.10611200307128031
-0.09743724805174026
-0.08915304737507376
-0.08123669353007586
-0.07365750588830658
-0.06640317403344731
-0.059517287947738785
-0.0530448659381556
-0.047022869646796965
-0.04148020405088913
-0.036437717462782
-0.03190820152995261
-0.027870645115165012
-0.024247464373212062
-0.021068441714913375
-0.01834860760959125
-0.016041713572917768
-0.014092398531768082
-0.012445580390271252
-0.011046456029809405
-0.009840501309018618
-0.00877347106378862
-0.007791399107262356
-0.006840598229836835
-0.005867695714594387
-0.004834615796659907
-0.00374182256531408
-0.0025960632697969895
-0.0014043641366025443
-0.00017403036947840982
0.0010873538505744114
0.002371925365301382
0.003671542039193955
0.004977782759490457
0.006281946343503809
0.0075745105640911345
0.008844257074291956
0.0100794598318333
0.011268113817187774
0.012397935033575367
0.013456360506961728
0.014430548286059362
0.01530737744232694
0.016073448069969434
0.016715102397183736
0.01723083194933048
0.0176521944016602
0.018016002638397532
0.018358790566513485
0.018716813115725255
0.01912604623849687
0.019622186910038503
0.02024065312830669
0.02101658391400439
0.02198482040092803
0.023166540866730676
0.024545788567936475
0.026100038305049148
0.027806485901318553
0.0296420482027413
0.03158336307805991
0.03360678941876376
0.035688407139088295
0.03780401717601569
0.0399291501643365
0.04204655154639442
0.04415987026338288
0.046276192664804185
0.048402326122906764
0.05054479903268562
0.052709860811881906
0.05490348190098354
0.05713135376322471
0.059398888884585825
0.061711219320961526
0.06407163942077418
0.06647864143404612
0.06892962284547512
0.07143235573044512
0.07400893973565004
0.07666229204767036
0.07939460070176724
0.08220798622036896
0.08510450161307112
0.08808613608458685
0.0911598551524284
0.09434758343646872
0.09767396388123373
0.10116357191841957
0.10484091546688722
0.10873043493266699
0.11285650320895455
0.11724342567611543
0.12191544020167948
0.12689669135672835
0.1321889982871356
0.13772617479077523
0.14342902397134852
0.14921828141972757
0.15501461521394758
0.16073862591921587
0.16631084658790266
0.17165174275954914
0.17668171246086045
0.18132110038685237
0.18552438879953914
0.18935344344437297
0.19289110601562112
0.1962201506947215
0.19942328415027827
0.20258314553806192
0.20578230650101226
0.20910327116923352
0.21262847616000097
0.2164402825955387
0.2205947439426454
0.22506319982187817
0.22979988644000654
0.23475897249096317
0.23989455915585214
0.24516068010294076
0.25051130148766787
0.25590032195263523
0.2612815726276164
0.26660881933951275
0.2718463376924411
0.2769933789801655
0.2820563745335339
0.2870416881705568
0.29195561619641663
0.29680438740345855
0.3015941630711999
0.3063310369663204
0.3110210353426719
0.31567011675369155
0.32028278212725536
0.32485873445750485
0.3293966039280755
0.33389495320976625
0.3383522774605471
0.3427670043255511
0.34713872022078374
0.3514753298621377
0.3557765516960275
0.36004001378303496
0.3642655216224618
0.36846021362531045
0.3726329165810812
0.3767925687490272
0.38094821985816185
0.3851090311072517
0.38928427516482395
0.3934833361691582
0.3977157097282946
0.40199100242582375
0.40630719020320943
0.4106201982762601
0.4148766036355309
0.4190230947413302
0.4230064715237268
0.4267736453825428
0.43027163918736006
0.4334475872775142
0.4362487354621
0.4386224414086863
0.44053750250522294
0.4420415016749573
0.44320026939861573
0.4440797476266797
0.4447459897793887
0.44526516074673733
0.44570353688847925
0.4461275060341221
0.4466035674829323
0.44719833190481156
0.44796064432940075
0.44887171412532834
0.4498968167103001
0.45100133897177697
0.452150779266978
0.45331074742287797
0.4544469647362094
0.45552526397346027
0.456511589370876
0.45737199663556655
0.4580742096875384
0.45859212486261874
0.4589012247971423
0.4589771035972015
0.458795466838645
0.45833213156707786
0.4575630262978621
0.45646419101611724
0.4550117771767176
0.45318204770429593
0.45096657302053506
0.4484178191260497
0.44560355951850533
0.4425916791653252
0.4394501745036872
0.4362471534405279
0.43305083535253924
0.42992955108617065
0.4269517429576272
0.42418596475287257
0.4216795069857652
0.4193919302673577
0.41726034477926005
0.41522197215678186
0.41321414550498625
0.4111743093986966
0.40904001988248956
0.40674894447070165
0.4042388621474235
0.40144766336650456
0.3983285326220121
0.39489868375460996
0.39118375578905723
0.387214001742273
0.3830246669493898
0.37865093214716794
0.37412791347398666
0.36949066246985285
0.3647741660763923
0.3600133466368582
0.3552373453251718
0.35045044032128897
0.34565012245269244
0.3408338178259658
0.3359988879493119
0.3311426297325611
0.3262622754871629
0.32135499292619435
0.31641788516435154
0.3114479907179581
0.30644501503946514
0.30142077352891244
0.2963904075818188
0.29136899413802997
0.28637154553901806
0.2814130095278746
0.27650826924931876
0.2716721432496881
0.2669193854769485
0.2622646852806843
0.2577173660010097
0.2532624086065788
0.24887778388451393
0.24454139746716066
0.24023109038849225
0.23592463908410083
0.23159975539120628
0.2272340865486475
0.22280521519689087
0.2182906593780218
0.21367308105046212
0.2089595862022508
0.2041644184903786
0.19930175794530638
0.19438571999912307
0.1894303554855362
0.18444965063988086
0.17945752709911153
0.17446784190181025
0.16949438748817724
0.1645517491480919
0.15965859348801528
0.1548347739012404
0.15010007944413734
0.14547423457470315
0.14097689915255474
0.13662766843893626
0.13244607309671058
0.12845157919036881
0.12466358818602052
0.121094771434142
0.11772461671074705
0.11452228039726592
0.11145685115360396
0.10849735304129293
0.10561274552348451
0.102771923464957
0.09994371713210909
0.09709689219296581
0.09420014971717196
0.09122824878238417
0.08818714726316676
0.08509269125392546
0.08196066645662932
0.07880679397487349
0.07564673031387358
0.07249606738047133
0.06937033248312943
0.066286907766469
0.06326648090230261
0.0603227171485933
0.05746193593474354
0.054688210560283
0.052005629953240574
0.04941829358062412
0.04693031144841678
0.04454580410158093
0.042268902624054513
0.040103748638754044
0.03805449430757167
0.036123476318829915
0.034303192514133676
0.03258284523452314
0.030951645034382955
0.029398814388899464
0.027913587288127893
0.02648520828161697
0.02510293245789066
0.02375602544445216
0.022433763407779937
0.021127286946907
0.01983802607684157
0.018570963595006373
0.017331096139388987
0.016123430886955087
0.014952985553646858
0.013824788394384308
0.012743878203064048
0.011715304312560536
0.010744126594724755
0.009834150312796702
0.008981980241472192
0.008181680628713026
0.0074273233082566975
0.006712990652818133
0.006032775574089097
0.005380781522739334
0.004751122488414774
0.004137922999739728
0.0035353181243144554
0.0029383722091493383
0.0023475439150913366
0.001765257502332248
0.0011939505322832332
0.0006360711053328173
9.407786084653959e-05
-0.0004295600228326436
-0.000932362828384917
-0.001411840299512771
-0.0018654916409419084
-0.0022912758901512584
-0.0026899756759958446
-0.003063419415102708
-0.003413426779447527
-0.0037418069020286005
-0.004050358376867338
-0.004340869259007549
-0.0046151170645160906
-0.004874868770482614
-0.005121880815019258
-0.005356637799009479
-0.0055717987502327945
-0.005757022850844418
-0.005901952718330607
-0.005996220431200296
-0.0060294475289851684
-0.00599124501223976
-0.005871213342541431
-0.005658942442490085
-0.005344011695708751
-0.004920871053572492
-0.004415064149131541
-0.003864332955067536
-0.0033064377773935685
-0.002779128383145312
-0.00232014400038129
-0.0019672133181832018
-0.0017580544866548286
-0.0017303751169232984
-0.001921872281138234
-0.0023616721457037967
-0.0030227805834850702
-0.0038555950658016227
-0.0048104404579550255
-0.0058376310862693175
-0.006887470738091718
-0.007910252661791316
-0.008856259566761056
-0.009675763623415936
-0.010319026463194329
-0.010743552438052093
-0.010955743920365012
-0.010982201621391813
-0.01084957960306818
-0.01058452138835259
-0.010213659961226232
-0.009763617766692984
-0.009261006710779816
-0.00873242816053618
-0.008204472944034508
-0.007701529385201752
-0.00723276785561631
-0.006800904524631574
-0.006408631500838265
-0.006058632790944429
-0.005753581862681325
-0.005496141644802728
-0.005288964527085219
-0.005134692360328194
-0.0050359564563538335
-0.004994590722575149
-0.0050068008036772875
-0.005066339258494377
-0.005166938110778301
-0.005302318845303494
-0.00546619240786728
-0.005652259205289889
-0.005854099038416567
-0.006065163966348297
-0.006279309629483075
-0.006489910548735356
-0.006686656108599813
-0.006857589462298905
-0.0069907410242341745
-0.007074136034327959
-0.007095794558025062
-0.007043731486291783
-0.006905956535616048
-0.006670474248007242
-0.0063252839909969955
-0.005861678347346345
-0.005295894019970876
-0.004655572753193614
-0.003968410006304142
-0.00326209606411392
-0.002564316036955792
-0.0019027498606840987
-0.0013050722966753642
-0.000798952931827518
-0.0004120561785600059
-0.00016726796787761212
-5.0294841719206586e-05
-2.940441208169783e-05
-7.275891011370513e-05
-0.0001485153924857698
-0.00022482574139002197
-0.00026983666454024604
-0.00025168969517207207
-0.00013852119204242337
0.00010153766056959388
0.0004947073874722579
0.0010218730743480227
0.0016421223384267827
0.002314409091511722
0.0029976924198846155
0.003650936584305588
0.004233111020012465
0.004703190336722186
0.005020154318629689
0.005142987924407955
0.005037532127597258
0.004726225072830458
0.004259410404890435
0.0036876330112169914
0.0030614429537290174
0.0024313954688228445
0.0018480509673742792
0.0013619750347364547
0.0010237384307413095
0.0008839170896988288
0.000986541430740874
0.001319899043214827
0.001844106847406597
0.002519069397412062
0.003304696421805328
0.004160902823638674
0.0050476086804430486
0.005924739244226935
0.006752224941478139
0.007490001373162041
0.008101991968154976
0.008587050860150559
0.008962131824133466
0.009244346711273613
0.00945081254721948
0.009598651532097225
0.009704991040511972
0.009786963621546761
0.009861706998763079
0.009946364070200558
0.010056586159797503
0.010194501280870285
0.010355058560297756
0.010533146092835868
0.010723657147719104
0.010921490168660133
0.011121548773850036
0.011318741755958293
0.011507983082132484
0.01168419189399853
0.01184264671746749
0.011981931884389094
0.012102433288101452
0.012204556489636238
0.012288650062942632
0.012351668165217688
0.012393009892305917
0.012414645386395886
0.012418537988458255
0.012406644238247198
0.012381879972826793
0.01235643758767313
0.012347680595318884
0.01237302192005102
0.012449867684938908
0.01259561721183517
0.01282766302137494
0.013163390892683388
0.013620180806561346
0.014215406774761258
0.014964063860562895
0.015857628115689484
0.016874130101458523
0.017991435920368077
0.019187404873699163
0.02043988946151517
0.021726735382662326
0.02302578153477027
0.024314860014250563
0.02557179611629833
0.026776351607032244
0.027928154549014966
0.029038465050415203
0.030118683578814212
0.03118020380057519
0.03223441258084501
0.033292689983552594
0.03436640927141059
0.03546693690591318
0.03660563254733858
0.03779365292950417
0.03904007795431131
0.04035273858158721
0.041739442085059704
0.043207988937238324
0.04476617280941652
0.04642178057166912
0.04818259229285552
0.050056381240616045
0.052050913881375546
0.054173396295852175
0.056424995633941086
0.0588031638628267
0.061305292079611294
0.06392876458017778
0.06667095885919413
0.06952924561010888
0.07250098872515541
0.07558354529534796
0.07877426561048562
0.0820703546333662
0.0854674516960588
0.08896020757392478
0.09254325092126786
0.09621120359117183
0.09995868063550588
0.10378029030491952
0.10767075170683733
0.11163969777313722
0.11568557262014016
0.11979430850712443
0.12396109071456692
0.12818709684985025
0.1324736671211239
0.13682220552837895
0.14123417986345552
0.14571112171003545
0.1502546264436499
0.15486635323167136
0.1595480250333216
0.1643005918503147
0.1691150152303441
0.17397567744147957
0.17886690651766735
0.18377309428469393
0.18867869636019607
0.19356823215365135
0.19842628486638716
0.20323750149157205
0.20798659281422388
0.21265988889174223
0.21726310162000204
0.22181508289509225
0.22633499561203618
0.23084206645769875
0.23535558591079447
0.23989490824187915
0.24447945151335723
0.24912869757947603
0.25386219208633104
0.25869607133728006
0.26360192731070037
0.26852048990495814
0.2733919317603059
0.27815649196139486
0.28275448399494674
0.28712628779208305
0.2912123470757724
0.294953169360827
0.29828932595390606
0.3011659833898485
0.3035885851532969
0.3056053915524636
0.307265637215466
0.30861862056226463
0.3097137038046678
0.31060031294632745
0.31132793778274215
0.31194613190125436
0.31250451268105367
0.3130493607121343
0.3135802523952104
0.31406282071499075
0.31446199552156023
0.3147427704568482
0.3148702029546299
0.3148094142405256
0.31452558933200114
0.3139839770383677
0.31314988996078236
0.3119908167232234
0.31049482517781357
0.30868600718390937
0.3066018210941192
0.3042795273732196
0.30175618859815906
0.2990686694580541
0.2962536367541938
0.2933475594000348
0.2903867084212059
0.2874047312677349
0.2843992950122047
0.28134058343892204
0.2781978954257283
0.27494033196263196
0.27153679615181436
0.26795599320762403
0.2641664304565829
0.260136417337379
0.2558340654008748
0.2512304353593163
0.24634450223669585
0.24123261033032767
0.23595190354135254
0.2305593278830772
0.22511163148098254
0.2196653645727153
0.2142768795080964
0.20900233074911256
0.2038976748699254
0.19901552648602702
0.19435846342437846
0.1898890182227437
0.18556841117046535
0.18135766466905104
0.17721760323218333
0.17310885348571042
0.16899184416765503
0.16482680612820508
0.16057377232972384
0.15619486498268353
0.15168961897240255
0.1470881610473784
0.1424213258960534
0.13771975031903577
0.13301387322910824
0.12833393565121906
0.12370998072249126
0.11917185369221328
0.11474920192184752
0.11047034068502107
0.10634402868856065
0.10236260025746147
0.09851769018941384
0.09480073539427565
0.09120297489407708
0.08771544982301581
0.08432900342746236
0.08103428106595449
0.07782173020920292
0.07468220278867309
0.07161702958084255
0.06863650629609014
0.06575102810225927
0.0629707922793619
0.060305798219581604
0.05776584742727051
0.05536054351895237
0.053099292223319376
0.050991301381235275
0.049044803801529126
0.0472535210045453
0.045600564348987856
0.044158978598217345
0.0429333852823794
0.04187074938899291
0.04091945314557792
0.04002929498632873
0.03915148920766907
0.038238665968253524
0.03724565032054325
0.0361436009522847
0.034918512400921004
0.03355827348889415
0.032052188900874835
0.030390979183765165
0.028566780746696215
0.026573145861030198
0.024405042660358634
0.022058855140503993
0.01953217599074672
0.016819886536670076
0.01391448090872544
0.010809725412812329
0.007500802140280515
0.003984309044712566
0.0002582599419183422
-0.0036779154900590414
-0.00782337171094969
-0.012175847318250266
-0.016731410547849372
-0.021479435797817283
-0.026402904841408486
-0.031483189398079044
-0.03670024532505937
-0.04203261261734514
-0.047457415407706746
-0.05295036196667925
-0.058485744702572895
-0.0640364401614629
-0.06957591539140198
-0.07511956653338124
-0.08072321733899007
-0.08644298164830706
-0.09233355743918849
-0.09844822682725249
-0.10483885606589431
-0.11180790029007981
-0.11957216947042769
-0.1278606628215647
-0.13641428780632628
-0.14489929811385233
-0.15290839943462164
-0.16005031671060588
-0.16595377598319314
-0.17026750439317992
-0.17266023018077406
-0.17282068268559567
-0.17045759234667637
-0.16529969070245704
-0.1571008497691716
-0.14575568665432032
-0.13130099078252389
-0.1137989775137063
-0.09333186330721537
-0.0700018657217943
-0.04393120341561752
-0.015262096146248353
0.015843235229314967
0.0492025687546885
0.08461846004036899
0.12199067448243969
0.16132039317715363
0.2025944162983923
0.24577954292058882
0.2908225710188036
0.3376502974686458
0.38616951804635535
0.43626702742871676
0.48780961919314875
0.5406403247601704
0.5944857856604647
0.6489504197109566
0.7036137145438601
0.7580351566919281
0.811754231588552
0.8642904235676637
0.9151432158638292
0.9637473693674035
1.009113537280371
1.0505450000854526
1.0875648414533616
1.1198227767064108
1.1470257463642701
1.168934248042256
1.1853623364513801
1.1961776233983095
1.2013012777853962
1.20070802561066
1.194426149967792
1.1825360617033038
1.165131635008502
1.1423157326133804
1.114242446897453
1.0811194273359288
1.043207880499662
1.0008225720080084
0.9543318323871449
0.9041575512117579
0.8507751751521633
0.7947147126518966
0.7365892529523177
0.6770990430177455
0.6169997112497507
0.5570961341232488
0.49773744699397127
0.4390933997844187
0.3815143844655667
0.3253282186542869
0.270840145613245
0.21833142929280586
0.16801746490446645
0.12004062568238454
0.07451786440602616
0.03154355950074518
-0.008810484962300882
-0.04649503926607134
-0.08148344804771561
-0.11377163029850608
-0.14337807936390026
-0.17034197263476525
-0.19466391618403345
-0.2162941418746966
-0.2352011819617533
-0.25137614305434164
-0.2648327061157669
-0.2756071264634796
-0.28375823376909487
-0.28936743205837434
-0.2925386997112414
-0.29340003253271657
-0.29202337450274035
-0.28844101987415816
-0.2829102057215255
-0.275682983892683
-0.2670010108954724
-0.25709554789774924
-0.24618746072736772
-0.23448721987219756
-0.22219490048010565
-0.2094999197697008
-0.19657190992987372
-0.1835583637108619
-0.17059563765025523
-0.1578096929456615
-0.14531609545468438
-0.13322001569494488
-0.12161622884406037
-0.11058911473966504
-0.10021265787938986
-0.09054975041737748
-0.08162663887990919
-0.07342555575414643
-0.06591613916700628
-0.05905763190541998
-0.05279888141631845
-0.04707833980664597
-0.041824063843346956
-0.036953714953378666
-0.032374559223700555
-0.027984433751216075
-0.02370915952073752
-0.019533033817768917
-0.01550532010245984
-0.011649174196730977
-0.007985076518352556
-0.0045344467156713435
-0.0013196436676057108
0.0016360345163490158
0.00430835049612595
0.006672653637351261
0.008725409939854514
0.010491765426818863
0.011998006848502267
0.013269481724589114
0.014330598344189423
0.0152048257658394
0.01591469381750074
0.016481793096561715
0.016926774969835818
0.01726950718062486
0.017535818201293876
0.017760086355583717
0.01797644070426971
0.0182180710775546
0.0185172280750657
0.01890522306585701
0.01941242818840792
0.020068276350624362
0.020901261229837462
0.021938447234624188
0.023182950237865187
0.024604540690593667
0.026169611034142757
0.027843614479272676
0.02959106500616819
0.031375537364441444
0.03315966098020266
0.03490510167728314
0.03657257995601248
0.038125227644911615
0.039567378693644975
0.04091559110790706
0.04218366251337865
0.04338535688159608
0.04453440452994823
0.04564450212167966
0.04672931266588748
0.047802465517524255
0.048877556377395076
0.049968235501878344
0.05109278541388567
0.05227634814805277
0.053544587119524326
0.05492313208930061
0.05643757919586658
0.058113491860293104
0.05997640091969253
0.062051803615506475
0.06436516353502894
0.06694147521774478
0.06978119349212888
0.07284765715123416
0.07610108459506196
0.07950166056946951
0.0830095361661661
0.08658482882271745
0.09018762232254045
0.09377796679490875
0.09731587871494787
0.10076172290731757
0.10409875076320194
0.10734570636168389
0.11052435615712118
0.11365643294972871
0.11676363588557205
0.1198676304565738
0.12299004850050783
0.1261524882010051
0.12937651408754747
0.13268352280160958
0.13608627509935903
0.13958383947639172
0.14317403699861622
0.14685516479669036
0.15063647807640096
0.15451881687547098
0.15849770211183228
0.16256865645977028
0.1667272043499166
0.17096881872562275
0.17528532250476123
0.17966260029813194
0.18408599333755038
0.18854084461118542
0.19301249886355212
0.19748630259551928
0.20194760406430137
0.20638175328346678
0.21077410202292987
0.2151102343684906
0.21939269733432515
0.22365230552463694
0.2279225533488955
0.23223693697292455
0.23662895431889308
0.24113210506532443
0.24577989064708736
0.2506058142554046
0.25564338083784494
0.2609256683220585
0.26645184473118905
0.27216317636355586
0.27799526923644163
0.2838837311234833
0.2897641715546631
0.2955722018163173
0.30124343495112854
0.3067134857581325
0.31191797079271105
0.3167930051075714
0.32131704757088514
0.32554264009488953
0.3295298004897634
0.33333854832203924
0.3370289049145948
0.34066089334666333
0.3442945384538222
0.3479898668280034
0.3518069068174848
0.3558053025023073
0.3600091420221511
0.3643787647716659
0.3688678775293807
0.37343018883017687
0.3780194089652825
0.3825892499822794
0.38709342568509486
0.39148565482758785
0.39571967069428143
0.3997494476934616
0.40355253757077847
0.4071498109441668
0.4105667887975632
0.413828993871251
0.4169619506618668
0.41999118542239405
0.4229422261621687
0.42584060264687357
0.4287118463985442
0.4315813239909732
0.4344563146828606
0.43731003550561665
0.44011193651615416
0.44283146952773333
0.4454380881099669
0.44790124758881505
0.45019040504658975
0.4522750193219507
0.45412455100990984
0.45570870239655487
0.45702557152379236
0.45812806364505065
0.4590753353855644
0.45992654512691655
0.4607408530070417
0.4615774209202213
0.4624954125170898
0.46355399320462903
0.46481233014617274
0.4663292020304152
0.46811284662773034
0.47007150101986966
0.4721016532210183
0.47409979300170835
0.4759608530113575
0.47757836927423747
0.47885313837290205
0.47968646219221345
0.4799796462330003
0.4796344159934026
0.4786117512780113
0.47699281743338984
0.47487333224949907
0.4723490171322685
0.4695155971035968
0.4664688008013505
0.4633043604793639
0.46011801200744107
0.4570054948713531
0.45406227141588595
0.45133973179640957
0.4487976100681715
0.4463842149650268
0.4440478588368011
0.44173685764928633
0.4393995309842451
0.43698420203940647
0.4344391976284697
0.4317128481811007
0.4287536450494868
0.42553745116194375
0.42209849010614114
0.41847848234638063
0.41471915196293546
0.41086222665204447
0.4069494377259177
0.40302252011273054
0.3991232123566307
0.39529325661773
0.391574266390002
0.38798222825727435
0.38447708934760644
0.3810113913021283
0.37753767937794225
0.37400850244811523
0.3703764130016869
0.36659396714366077
0.3626137245950134
0.3583882486926865
0.353870218154928
0.34903656240104897
0.34391858696010336
0.3385550005919835
0.33298451567254816
0.3272458481936311
0.3213777177630276
0.31541884760450445
0.30940796455779396
0.3033837990786039
0.2973850498077213
0.29144176147095696
0.285564070564077
0.2797593281789265
0.2740348890233117
0.26839811142100967
0.26285635731176415
0.2574169922512935
0.25208738541127823
0.24687491632440436
0.241786966759188
0.23682307272612352
0.2319642399717584
0.22718880642342357
0.22247511362441708
0.21780150673401089
0.21314633452743986
0.20848794939590906
0.20380470734658987
0.1990749680026283
0.19427713219904794
0.1894014963162101
0.18446714062898145
0.17949741721420673
0.1745156817646921
0.1695452935892145
0.16460961561251675
0.15973201437531737
0.1549358600342962
0.1502445263660152
0.14568136265611767
0.14125942906262284
0.13696623228362173
0.13278538352371164
0.12870049760345745
0.1246951695421589
0.1207484729302751
0.11683869145427198
0.1129466345716029
0.1090530979442932
0.10513888640311563
0.10119450155978045
0.09723517059605752
0.09327998918438384
0.08934803920177388
0.08545838872981046
0.0816300920546514
0.07788218966702551
0.07423370826223948
0.07070366074016853
0.06731103136506582
0.06406742848072447
0.060965199610983144
0.05799357213333611
0.05514175962985208
0.05239896188717136
0.04975436489651158
0.04719714085365896
0.04471644815897454
0.04230143141739115
0.03994122016637322
0.03762418129026432
0.03533665868876659
0.03306464900731865
0.030794135095935225
0.02851108600920082
0.02620145700627405
0.02385118955088557
0.02144621131134204
0.018972436160520408
0.016415781164060818
0.013774173497215911
0.011078637536660583
0.008365834250651526
0.005672410812019645
0.003035000598167848
0.0004902231910746437
-0.0019253156227109006
-0.004175023852065694
-0.006222323301294666
-0.00803066652265658
-0.009578163978796416
-0.010884334046126527
-0.011975971338470653
-0.012879884265077492
-0.013622895030624721
-0.014231839635216301
-0.014733567874383284
-0.015154943339083104
-0.015522843415700635
-0.01586415763584059
-0.01620401883453101
-0.016562436031030095
-0.016958505422808634
-0.017411337002763993
-0.017940054559220587
-0.01856379567592874
-0.01930171173206694
-0.020172967902240282
-0.021196743156481138
-0.0223922190143004
-0.02376329322683571
-0.025268302687339126
-0.02685714883786218
-0.028479746915882134
-0.030086025954304492
-0.03162592878146135
-0.03304941202111204
-0.0343064460924421
-0.03534701521006481
-0.036121142410209334
-0.03659836725841785
-0.036807743906204095
-0.03678967563180359
-0.03658457950887836
-0.03623288640651809
-0.03577504098923837
-0.03525150171698275
-0.034702316206344175
-0.03416473377935801
-0.033677947649570744
-0.03327539460728132
-0.032970762751272
-0.03277386709020676
-0.03269451577208167
-0.03274251008422603
-0.03292764445330154
-0.03325970644530244
-0.033748476765555556
-0.034403729258720615
-0.035235226881883235
-0.03623948797526921
-0.0373703212198539
-0.038572934080842974
-0.039792527162774774
-0.04097429420952066
-0.042063422104283564
-0.04300509086960014
-0.043744473667339225
-0.04422673679870245
-0.04439704438145349
-0.04422293973950168
-0.04374612573115479
-0.04302363726750605
-0.042112502398981205
-0.04106974231533897
-0.03995237134567017
-0.0388173969583993
-0.03772181976128245
-0.03672263350140868
-0.035876822962530246
-0.03522578344654012
-0.0347578772226507
-0.03445019070479408
-0.03427980344623494
-0.03422378813957082
-0.03425921061673185
-0.034363129848980836
-0.034512597946913005
-0.03468466016045635
-0.034856355139184676
-0.03500796420329334
-0.03513112030898962
-0.03521992984768538
-0.03526849235012548
-0.03527090048638721
-0.035221240065880635
-0.03511359003734827
-0.03494202248886533
-0.03470060264783992
-0.03438338908999549
-0.033989398903798165
-0.03353547139634779
-0.03304243922447652
-0.03253112818434931
-0.03202235721146359
-0.03153693838064953
-0.031095676906069757
-0.030719371141219757
-0.030428812578927576
-0.0302447857453154
-0.03018225019528946
-0.030234697209362036
-0.03039066388351417
-0.030638680453059616
-0.030967270292644566
-0.03136494991624797
-0.031820228977181265
-0.03232161026808874
-0.032857589720947517
-0.03341665640244778
-0.03398645947525631
-0.03455148433865294
-0.0350954618415462
-0.03560211597217717
-0.03605516385811911
-0.03643831576627834
-0.036735275102893844
-0.03692598000804802
-0.03699085103388157
-0.03691441908862546
-0.036687303654894865
-0.03632389968735985
-0.03584436894770358
-0.03526884866899403
-0.034617451555684374
-0.033910265783612545
-0.03316735500000141
-0.03240875832345863
-0.031654490343976945
-0.03092454112293374
-0.03023611012631056
-0.02959530802434806
-0.029005454891890787
-0.028469846275168326
-0.027991753191794914
-0.027574422130769622
-0.027221075052476982
-0.026934909388685993
-0.026719098042550557
-0.02657678938860949
-0.026509271813090856
-0.026510266191332524
-0.02657153146857148
-0.02668480206005035
-0.026841787852396968
-0.02703417420362403
-0.027253621943128862
-0.027491767371693943
-0.027740222261486765
-0.027990573856059384
-0.02823332972858841
-0.02845451789386276
-0.0286389662442985
-0.028771478093765682
-0.028836832158993568
-0.028819782622054983
-0.02870505913640772
-0.028477366826894543
-0.02812138628974295
-0.027621773592565544
-0.02697237447471486
-0.02620698120429472
-0.02537019752784795
-0.02450660286079405
-0.02366075208993753
-0.022877175573467908
-0.022200379140959486
-0.021674844093371493
-0.021345027203048324
-0.021255360713719033
-0.021435781126579873
-0.02185170170170682
-0.022450548370205037
-0.023179721778543712
-0.023986598044577135
-0.024818528757544516
-0.025622840978070053
-0.026346837238162866
-0.0269377955412165
-0.027342969362009948
-0.02752319795331201
-0.027501624338131622
-0.027319198398505988
-0.0270168469162914
-0.026635472144729472
-0.02621595180844638
-0.02579913910345342
-0.025425862697146466
-0.025136926728306787
-0.02497311080710027
-0.024964484288980297
-0.025090810394517646
-0.025317051730697038
-0.025608144382049936
-0.02592899990449244
-0.026244505325325594
-0.026519523143235937
-0.026718891328294234
-0.026807423321956486
-0.026749908037063487
-0.026518407324637165
-0.026120243066648053
-0.02557336275668242
-0.02489569158489654
-0.024105130212832414
-0.023219554773416466
-0.022256816870959987
-0.02123474358115898
-0.020171137451095198
-0.01908377649923433
-0.017990033177133772
-0.016905362141594306
-0.015844606613236962
-0.014822585105529883
-0.013854091603326804
-0.01295389556286616
-0.012136741911770886
-0.01141735104905013
-0.01081041884509679
-0.010330616641688817
-0.00998154560182523
-0.009710380803824038
-0.009446317152153475
-0.00911851743482469
-0.00865611991123299
-0.007988238312160665
-0.007043961839773117
-0.005752355167620557
-0.00404245844063833
-0.0018432872751486234
0.0008949774327764067
0.004110972496174101
0.007706987813244749
0.011585312571836252
0.015648260488413966
0.019798169808057625
0.023937403304463624
0.02796834827993865
0.03179341656540902
0.035315044520415034
0.03845723682692141
0.041260228432786934
0.04380328437023006
0.046165722874873506
0.04842432845261766
0.05065255570156884
0.05292581485095294
0.05531934613602323
0.05790819974286005
0.0607672358083627
0.0639575278236608
0.06746457316438012
0.07124770007398043
0.07526602253263914
0.07947846447136303
0.08384375977198216
0.08832045226715292
0.09286689574035042
0.0974412539258802
0.10200150050887039
0.10651190776832728
0.11097354159039344
0.11540036162530679
0.11980615262039834
0.12420450927382592
0.1286088362345658
0.1330323481024247
0.1374880694280323
0.14198883471284446
0.14654728840913575
0.15117376297017832
0.15586596627583343
0.1606169006920539
0.16541937215585545
0.17026599655508487
0.17514919972841142
0.18006121746533071
0.18499409550615703
0.18993968954203547
0.19488966521493334
0.19983227254614186
0.20473613647478797
0.2095624481360761
0.21427219631145455
0.21882617973319785
0.22318500708439934
0.22730909699898338
0.2311586780616961
0.23469378880811026
0.23787427772461844
0.24066808233894968
0.2430955273334324
0.2452052504581608
0.24704159093457795
0.24864786250477738
0.25006776491780236
0.2513453839296492
0.25252519130326145
0.2536520448085374
0.25477118822232514
0.2559192016714975
0.25707538352281223
0.25819678267630514
0.25924078050919963
0.2601651444056709
0.26092802775684454
0.26148796996079804
0.2618038964225598
0.2618351185541092
0.26154133377437727
0.2608890137726365
0.2598868887373274
0.25856093875554687
0.2569375762395244
0.2550435996084388
0.2529061932884209
0.25055292771255144
0.24801175932086553
0.24531103056034642
0.24247946988492955
0.23954287485693704
0.2365050632760882
0.23336099747657926
0.23010599658297018
0.22673576572677018
0.22324639604644475
0.21963436468740577
0.21589653480201798
0.21203015554959506
0.2080328620964079
0.20390386723002357
0.1996510369256084
0.19528612588553612
0.1908212812195856
0.18626903448201343
0.1816423032340284
0.17695439104378935
0.17221898748641212
0.16745015800279253
0.16265269476172348
0.15783047318731852
0.15299398001446085
0.14815316151389477
0.14331769385098805
0.1384969841967287
0.13370017072772036
0.12893612262619158
0.12421344007998229
0.11954045428255211
0.11492522743297726
0.11037422064254676
0.10588383778350355
0.10144584872514509
0.09705173422216598
0.09269270603488455
0.08835970692923141
0.08404341066612685
0.07973422090149782
0.07542227022846869
0.0710974220200342
0.06675129847119814
0.062390591354735334
0.058028738333523455
0.05367894428068309
0.049354145074954545
0.04506700760069448
0.04082992974788285
0.03665504041211237
0.032554199494595225
0.028538997902160346
0.024620921764160995
0.020812467126481153
0.017126460817120513
0.013575464117112444
0.010171769313112668
0.006927399697390402
0.003854109567834554
0.0009633842279509136
-0.001733560013133597
-0.004225775840677181
-0.006505130740290224
-0.008584178475322423
-0.01048555972838892
-0.01223224671535143
-0.013847480646452887
-0.015354771726318675
-0.016777899153953925
-0.01814091112274849
-0.019468124820472932
-0.020784126429280927
-0.022111604133265263
-0.02345516229267701
-0.024775039441324455
-0.026059116834825233
-0.0273235747501147
-0.028583888803247092
-0.029854829949392977
-0.0311504644828407
-0.03248415403699372
-0.033868555584374606
-0.035315065377079714
-0.03682964280080501
-0.03841515085559894
-0.04007372941454764
-0.04180681368985406
-0.04361513423283906
-0.045498716933937686
-0.04745688302270465
-0.04948824906781132
-0.05159072697704699
-0.053766772679548776
-0.05606416530257408
-0.05855382575259446
-0.06130617178218173
-0.06439091648302038
-0.06787706828591596
-0.07183293096078995
-0.07632610361668304
-0.08142348070174629
-0.08719125200325457
-0.09368617755896125
-0.10088545031474898
-0.10872368006706644
-0.1171343860092746
-0.12605207256940062
-0.13541301802609448
-0.14504613151168708
-0.15475303179632718
-0.1643364237671623
-0.17360009842834626
-0.182355282088669
-0.19047345077726766
-0.1978593667600929
-0.20441919788227336
-0.21006018566602067
-0.21469065464057976
-0.21822001545219485
-0.2205587648641136
-0.2216184857565826
-0.22131184712685473
-0.21955159773553826
-0.21624190228423107
-0.2112826179212408
-0.20457462935663692
-0.19601990741749228
-0.18552150904787715
-0.1729835773088782
-0.15831134137857122
-0.14141111655203867
-0.12219030424135655
-0.10055640621576861
-0.07640823982679858
-0.049640124075288186
-0.020143158107034022
0.012336328562269948
0.04777845002710764
0.08600269648415668
0.12681477025446536
0.17000658578337882
0.2153562696406479
0.26262906214819143
0.31158563635377784
0.3619782775522837
0.41354555144171384
0.4660122358444047
0.5190893207070677
0.5724740081006955
0.6258497122207037
0.6788860593868363
0.7312388880431895
0.7825464162655932
0.8323926236863262
0.8803234293288743
0.9258706343927451
0.9685522522018155
1.0078725082042594
1.0433218399726598
1.074376897203932
1.100500541719354
1.1211418474645214
1.1357420293256821
1.1437931176195342
1.1448442232921618
1.1389544444706663
1.1266045863172256
1.108283964509602
1.0844780504824163
1.0556684714271913
1.022333010292292
0.9849456057829619
0.9439700907717925
0.8997959922717103
0.8527646161156995
0.8032127314119248
0.7514732630253995
0.6978752915780758
0.642744053448708
0.586400940772943
0.5291635014432727
0.4713454391091366
0.4132613772710793
0.35527747778291924
0.29779178896265884
0.24119911039703745
0.18589039742958727
0.13225276116073686
0.08066946844776308
0.03151994190488115
-0.01482024009689242
-0.057991249108698344
-0.09794285298602931
-0.13474635133171645
-0.16844691855405133
-0.19909656091403163
-0.22675376467483424
-0.2514834961017664
-0.27335720146233994
-0.2924528070262208
-0.30885471906524836
-0.322653823853408
-0.33394678535173483
-0.34282802523069417
-0.349392541123065
-0.3537416990472943
-0.3559833450240056
-0.3562318050759861
-0.3546078852281885
-0.3512388715077353
-0.34625852994391393
-0.33980710656817936
-0.3320307079336546
-0.3230739641350774
-0.31308246922210314
-0.30220818647390124
-0.2906095601495616
-0.2784515184213885
-0.2659054704415968
-0.25314930536457225
-0.24036739234686302
-0.2277505805472003
-0.2154835495765503
-0.2035938754405809
-0.19210389663137692
-0.18105464249519893
-0.17048452065421624
-0.16042931700652752
-0.15092219572615007
-0.14199369926303723
-0.13367174834305354
-0.12598164196799128
-0.11894404513033853
-0.11254932626402453
-0.1067651083996998
-0.10155593901714302
-0.09688374387205463
-0.09270782699606449
-0.08898487069671995
-0.08566893555749397
-0.08271146043778174
-0.08006126247290621
-0.07766649710230206
-0.075500607938391
-0.07355519747276826
-0.07181974160310288
-0.07028109450298452
-0.06892348862192785
-0.0677285346853702
-0.06667522169467409
-0.06574702973919438
-0.06499045513013968
-0.0644323932175764
-0.06404804568102723
-0.06378063612701239
-0.06357283080935412
-0.06336755020563409
-0.06310796901719498
-0.0627375161691383
-0.06219987481032515
-0.06143898231337688
-0.060399030274675414
-0.05902888204284634
-0.05734519052174173
-0.05541759604808741
-0.05331739336631406
-0.051116131444611045
-0.048885613474928015
-0.04669789687297335
-0.04462529327821869
-0.04274036855389195
-0.04111594278698221
-0.03982064154550953
-0.03885282443937826
-0.03815472271853387
-0.03766724507808532
-0.03733155443690053
-0.0370890679376095
-0.03688145694659997
-0.03665064705402082
-0.036338818073778825
-0.03588840404354191
-0.035244482899358914
-0.034391683550005124
-0.033347057684046146
-0.03212595021055893
-0.030742070652402607
-0.029210845133916797
-0.02754775468527568
-0.02576833524248738
-0.023888177647396355
-0.021922927647679193
-0.01988760460023349
-0.017785654305073825
-0.015610830461000376
-0.013356640345473798
-0.011016646141789694
-0.00858446493907737
-0.0060537687323031185
-0.0034182844222646167
-0.0006717938155950392
0.0021918663752398377
0.005177548723355057
0.008267791471851556
0.011425974816729806
0.014614804126773125
0.017796929864926904
0.02093494758830531
0.023991397948187807
0.02692876669002009
0.029709484653410244
0.03229592777213517
0.03465329191160979
0.036799666635264475
0.038799610696831556
0.04071921113700963
0.04262450009066156
0.04458145326375716
0.046655985364186026
0.04891395467094717
0.05142116455720451
0.05424336349028892
0.05744325087404815
0.06102613570751408
0.06494569322723368
0.06915370497685897
0.07360189759420233
0.07824194281124712
0.08302545745414082
0.08790400344319797
0.09282908779289371
0.0977521626118744
0.10262622881561105
0.10743618098050649
0.11219628386185033
0.11692184525402553
0.1216281180455787
0.1263303002192233
0.1310435348518335
0.13578291011445462
0.1405634592722955
0.14540016068473327
0.15030701802818738
0.15527890513037637
0.16029274259987994
0.16533160463713362
0.17037452327324423
0.17539555340434596
0.1803687921051017
0.185268378628708
0.19006849440688642
0.19474336304989592
0.19926855619765793
0.20364789892695834
0.2079124925049215
0.21209459070288572
0.21622648947071754
0.22034052693681744
0.22446908340811028
0.22864458137005902
0.2328994854866559
0.23726630260042575
0.24177593746662426
0.24642230696725423
0.25116277270269133
0.2559531807081224
0.26074941919725864
0.2655074185623492
0.2701831513741728
0.27473263238204054
0.27911191851378947
0.28327710887579366
0.2871862626995073
0.2908425414207964
0.29429474130132505
0.29759372525673466
0.3007903983811978
0.30393570794741825
0.30708064340662633
0.31027623638858914
0.31357356070160336
0.3170237323324983
0.32067589218777776
0.32452974412974184
0.3285337794981403
0.3326341593183761
0.3367770867943806
0.3409088073086185
0.34497560842208674
0.3489238198743133
0.35269981358335445
0.3562500036458011
0.35952209479814223
0.3624958296595528
0.36518492523612633
0.36760477689400006
0.3697708221778405
0.3716985408108468
0.3734034546947465
0.37490112790980157
0.3762071667148039
0.37733721954707733
0.3783069151744248
0.37913026700636476
0.3798195309445179
0.38038691473071334
0.38084466828531216
0.38120508370720574
0.3814804952738177
0.38168327944110275
0.3818258548435471
0.38192068229416715
0.3819797731111351
0.38200138911775616
0.3819685033735479
0.3818633305085781
0.38166812733144545
0.3813648898276393
0.38091590943053294
0.3802951092176572
0.379489954915945
0.3784878754495397
0.3772767858485402
0.37585993066635204
0.37425800591409236
0.3724926203228901
0.37058534582108343
0.3685577175342235
0.36643123378506903
0.36422735609359036
0.361967509176966
0.359673080949589
0.3573647120986454
0.3550411144779079
0.3526754540354743
0.3502394207711507
0.3477046678819495
0.34504281176209417
0.3422254320030179
0.33922407139336785
0.33601023591899765
0.3325553947629716
0.3288317575963585
0.32483664025357223
0.32059731805562275
0.3161427869645923
0.3115020061375517
0.30670389680140364
0.3017773404219809
0.296751181182968
0.29165422646525735
0.28651524684695895
0.2813625808560174
0.2762110954693427
0.2710592099313012
0.2659043087184191
0.26074373950442636
0.25557481316026626
0.25039480375408907
0.24520094855126212
0.239990448014357
0.2347604658031572
0.22950829106883386
0.22423697948888247
0.21895680841743437
0.21367847630464687
0.2084126447978845
0.2031699387417295
0.1979609461779672
0.1927962183455962
0.18768626968082197
0.18264157781706805
0.1776723876826564
0.172781529403081
0.16796234730890647
0.16320753086339929
0.15850973272702923
0.15386156875747845
0.14925561800963766
0.14468442273561385
0.14014048838471818
0.13561628360347436
0.1311041954916747
0.12659479731114848
0.12207629508993438
0.11753670007383599
0.11296398670586433
0.10834609262624763
0.10367091867241751
0.09892632887901862
0.09410015047790318
0.08918017389814026
0.08415471030820922
0.07903541537727408
0.07386530718328885
0.06868957195332628
0.06355335911166354
0.05850178127979008
0.05357991427640386
0.04883279711741836
0.04430543201595252
0.04004278438233655
0.03608888906386267
0.03244811280837858
0.029070283123026848
0.02590122774535185
0.022886737610107847
0.019972566849263882
0.017104432791994847
0.014228015964686539
0.011288960090934216
0.008232872091548146
0.005006006335873656
0.001586708800529797
-0.0020014618471865604
-0.005731578420640142
-0.009576750535989578
-0.013510124612182182
-0.01750488387095602
-0.021534251416516097
-0.025571499474585056
-0.02958994015335558
-0.033562930575073764
-0.03746427355372402
-0.041268398495961714
-0.044949817531564434
-0.04848307959310007
-0.05184277041592311
-0.055003512538181504
-0.057939965300811504
-0.06062682484754028
-0.06303898844422087
-0.06515277329015368
-0.06697593725470938
-0.06856231957424755
-0.06996946011140502
-0.07125488804857008
-0.07247612188788963
-0.07369066945126306
-0.07495602788034565
-0.07632968363654467
-0.07786911250102468
-0.07963100944288735
-0.08162871201530425
-0.08380995513616582
-0.08611700316615276
-0.08849210978569963
-0.09087751799499677
-0.09321546011398568
-0.09544815778236591
-0.09751782195959066
-0.09936665292486829
-0.1009374573501742
-0.10221005560810306
-0.1032216451813405
-0.10401434945644239
-0.10463028113971753
-0.10511154225723075
-0.10550022415480192
-0.10583840749800505
-0.10616816227216762
-0.10653154778237327
-0.1069702584748196
-0.10750328096263871
-0.10811355268222345
-0.10878079781955331
-0.10948472988036193
-0.11020505169013811
-0.1109214553941242
-0.11161362245731801
-0.11226122366447194
-0.11284391912009314
-0.11334156374681788
-0.11374809615252922
-0.11408037044966307
-0.1143573340670235
-0.11459792375316885
-0.11482106557641247
-0.1150456749248225
-0.11529065650622142
-0.1155749043481863
-0.11591730179804892
-0.11633652047626931
-0.11683643127559387
-0.11739624675911574
-0.11799283356595196
-0.11860304765497437
-0.11920373430480942
