1.093774634872049
1.0892154939446668
1.0787373098757296
1.062269448510674
1.039890995893553
1.0120302188268195
0.979118414502263
0.9415878353770911
0.8998716891739326
0.8544041388808368
0.8056203027512739
0.7539592233250766
0.6998730998589321
0.643818220795893
0.5862518298466635
0.5276321259873685
0.46841826345955323
0.40907035177018347
0.3500494556916454
0.29181759526174655
0.2348377457837142
0.17957089557384415
0.1264016944497308
0.0754975209817793
0.026987880684237867
-0.019013373064550174
-0.06240839528609956
-0.10311534940178346
-0.14106840723283381
-0.17621774900034012
-0.20852956332525055
-0.2379798593854427
-0.2645338119925777
-0.28816532738274175
-0.30886432005925196
-0.3266367129252839
-0.34150443728387175
-0.3535054328379076
-0.3626936476901424
-0.3691390383431847
-0.3729275696995019
-0.37417347407452334
-0.3730616310387316
-0.36980814540648677
-0.36464513103245455
-0.3578207101711598
-0.34959901347698524
-0.3402601800041724
-0.3300940268146123
-0.31929428429358675
-0.30805234272919835
-0.29655749753256255
-0.2849259629492253
-0.2732466025921122
-0.26159925371426535
-0.25005472867688033
-0.23867481494930576
-0.2275122751090433
-0.21661084684174772
-0.20600524294122705
-0.1957211513094422
-0.18578218610166256
-0.17623564514417453
-0.16712941332576886
-0.15850235194039627
-0.15038429739016052
-0.14279606118531854
-0.13574942994428024
-0.12924716539360895
-0.12328300436802059
-0.11784165881038464
-0.11290137874921723
-0.1084437817766189
-0.10444520107847742
-0.1008729457303515
-0.09768529991595298
-0.09483152292714683
-0.09225184916395086
-0.08988246906021335
-0.08777467070818418
-0.08596980538101356
-0.08446676825086645
-0.0832222138630644
-0.08218016975600108
-0.08128533692152898
-0.08048309385217109
-0.07971949654112143
-0.0789412784822449
-0.07809585067007753
-0.07713130159982602
-0.07599639726736807
-0.07465611393005847
-0.07315541909083557
-0.07156520757911351
-0.06995706239525372
-0.06840324404028846
-0.0669766905159209
-0.06575101732452521
-0.06480051746914649
-0.06420016145350065
-0.0640255972819745
-0.06432690299827719
-0.06501708618258054
-0.06596478747211804
-0.06703929580553274
-0.06811057762213876
-0.06904927686192107
-0.06972671496553551
-0.07001489087430884
-0.06978648103023882
-0.06891483937599402
-0.06730645016812925
-0.06504325324140059
-0.06225421286746526
-0.05906955998077976
-0.055624648766745846
-0.052054876361101815
-0.048495682849922686
-0.04508255126962016
-0.041951007606942495
-0.03923662079897462
-0.0370470187504788
-0.035334715667060465
-0.033998799573423596
-0.03293835160809226
-0.03205249585992742
-0.0312403993681265
-0.030401272122223537
-0.029434367062089475
-0.028238980077931596
-0.026714450010293968
-0.024777495528796822
-0.022443694162954206
-0.019763624777940306
-0.016787949658290974
-0.013567374038879101
-0.010152646104913484
-0.006594556991940318
-0.0029439407858419236
0.0007483254771623801
0.004431321810517138
0.008060781577353831
0.011631635187396136
0.015153019686022631
0.01863404930105817
0.02208379530999088
0.025511286039972596
0.02892550686781803
0.032335400220005334
0.03574986557267621
0.039177759451635735
0.04262699447413153
0.046100011764344855
0.04959718618943276
0.05311884622933294
0.05666527741364633
0.06023672232163727
0.06383338058223358
0.06745540887402611
0.07110292092526942
0.07477598751388115
0.07847555226235649
0.08220819013003672
0.08598360417901228
0.08982458031573082
0.09374218945348037
0.0977423207561998
0.1018308907280521
0.10601384321342566
0.11029714939693282
0.1146868078034117
0.11918677265392154
0.12378782422656806
0.12847558843570467
0.13323570628189732
0.1380538461059369
0.1429157035888382
0.14780700175184175
0.15271349095641226
0.15762094890423917
0.16251518063723663
0.16738459441024758
0.17223450962590106
0.17707707287791333
0.18192447677662066
0.18678894127258447
0.19168271365659054
0.19661806855964947
0.20160730795299667
0.20666276114809243
0.2117967847966215
0.21701568760294915
0.222284840089622
0.22755271328203072
0.2327677520321919
0.23787842853234703
0.242833242314962
0.24758072025272768
0.2520694165585594
0.2562479127855976
0.26006481782720714
0.2634824095988559
0.26655763660076953
0.2693875877446249
0.2720695073240146
0.2747006592947061
0.27737831820482184
0.28019978091510245
0.2832623716255471
0.28666344187637943
0.2905003705480484
0.29485069141466014
0.2996500888343415
0.30477258748723446
0.3100919869400321
0.3154821140996537
0.32081682321324173
0.32596999586816455
0.3308155409920144
0.33522739485260894
0.3390795210579902
0.342265335374396
0.3448210147955492
0.3468464149700368
0.3484417122832051
0.34970711046062547
0.350742840568094
0.35164916101163113
0.3525263575374826
0.3534747432321183
0.35459465852223343
0.35597337407135343
0.35759912030168034
0.35941484778321503
0.36136330059052
0.36338725013838263
0.3654294951818148
0.3674328618160534
0.36934020347656016
0.3710944009390209
0.3726383623193468
0.373920646513674
0.3749336347558478
0.3756902743531741
0.3762036580064573
0.37648690575672655
0.3765531649852357
0.3764156104134631
0.376087444103112
0.3755818954561103
0.374912221214611
0.37409124503987184
0.3731186773055576
0.37200005465586816
0.3707493531044102
0.3693805166175049
0.3679074571141863
0.36634405446620366
0.3647041564980186
0.36300157898680735
0.3612501056624602
0.35946061337224267
0.35762019907462955
0.355704219797158
0.3536879182434969
0.35154650507002927
0.3492551588858518
0.3467890262527748
0.34412322168532294
0.34123282765073404
0.33809289456896063
0.33468286775717965
0.3310198348881962
0.327139892772877
0.3230792531884024
0.31887409586466714
0.31456056848427943
0.3101747866825614
0.30575283404754905
0.3013307621199922
0.2969445903933546
0.29262624543643057
0.2883720102623037
0.2841596859735601
0.27996688572062595
0.2757711906066404
0.27155014968745705
0.2672812799716432
0.2629420664204798
0.2585099619479624
0.2539623874207991
0.24928014694540263
0.2444748819331518
0.23957459436751924
0.23460740525518234
0.22960140355553244
0.22458464618067436
0.2195851579954272
0.21463093181732343
0.20974992841660994
0.20497007651624669
0.20031562760606345
0.19577683421165756
0.19132543012808015
0.18693293725087592
0.18257086679793313
0.17821070328226032
0.17382389916958021
0.16938187487832976
0.16485601877965908
0.16021768719743248
0.15544162809688356
0.15053545604152097
0.14552510320812892
0.1404366689354016
0.13529622051474746
0.1301297931902886
0.12496339015886111
0.11982298257001472
0.11473450952601318
0.10972387808183388
0.10481552982475476
0.10001966669263623
0.09533833804861558
0.09077346594159792
0.08632694037320197
0.0820006192977603
0.07779632862231928
0.073715862206639
0.06976098186319367
0.06593341735717156
0.06223364977434266
0.058649686123765296
0.055162214588012536
0.05175179916892974
0.04839897182107616
0.0450842324517245
0.041788048920862166
0.03849085704118938
0.03517306057812103
0.03181503124978533
0.02839894367853383
0.024926307686148595
0.02141022254066062
0.017863913438107552
0.014300573527240942
0.010733363909525558
0.007175413639140837
0.003639819722979466
0.00013964712064817343
-0.003312071255532223
-0.006703096777074986
-0.010029819204000204
-0.01329367985048533
-0.016496116528048353
-0.019638559219330262
-0.022722430078094567
-0.025749143429228107
-0.028720105768740147
-0.03163671576376281
-0.03450036425255109
-0.03731092263506271
-0.040051244353668115
-0.04269346199195029
-0.04520953313270627
-0.047571407529856
-0.04975102710844191
-0.05172032596462964
-0.053451230365707335
-0.054915658750086034
-0.056085521727299525
-0.05693726663528337
-0.05750016346146121
-0.05783755854396953
-0.058013358461728164
-0.05809146196477931
-0.058135759974288236
-0.05821013558254286
-0.058378464052953896
-0.05870461282005488
-0.05925244148950244
-0.060080320370519746
-0.061180760610972426
-0.06250274738342182
-0.06399448485431877
-0.06560416936123727
-0.06727998941287366
-0.06897012568904735
-0.07062275104070058
-0.07218603048989851
-0.07360812122982875
-0.07484074021633624
-0.07587990371994965
-0.07675161128094525
-0.07748242159557468
-0.07809888553121266
-0.07862754612635636
-0.07909493859062589
-0.07952759030476445
-0.07995202082063756
-0.0803947418612338
-0.08088028935654289
-0.08140791534322857
-0.08195934066369875
-0.08251592642918498
-0.08305903053443946
-0.08357002149492773
-0.08403026460963632
-0.08442111734867425
-0.08472392781881313
-0.0849200274073524
-0.08499258580904315
-0.08494933855929467
-0.08481546136250477
-0.08461649369103687
-0.08437796718837716
-0.08412540566913448
-0.08388432511904093
-0.08368023369495073
-0.08353863172484166
-0.08348501170781365
-0.08354303097858089
-0.08371120781051655
-0.0839697785420879
-0.08429855956743833
-0.08467735945183426
-0.08508597893166492
-0.08550421091444203
-0.08591184047880077
-0.08628864487449842
-0.08661439352241555
-0.08686945429736428
-0.0870428209039873
-0.08712990823916746
-0.0871262766750503
-0.08702747875490412
-0.08682905919312002
-0.08652655487521206
-0.08611549485781683
-0.08559140036869405
-0.08494978480672596
-0.08418743550939412
-0.08332003995524007
-0.0823776957826372
-0.08139085583137694
-0.08038996511237372
-0.07940546080766449
-0.07846777227040926
-0.07760732102489068
-0.07685452076651428
-0.07623977736180855
-0.07579162237418371
-0.07551596356921288
-0.07540249613590878
-0.07544050126436122
-0.07561925717769902
-0.07592803913208977
-0.07635611941673974
-0.07689276735389385
-0.07752724929883582
-0.07824882863988844
-0.07904618248406356
-0.07989873844120587
-0.0807785283306194
-0.08165737425913767
-0.0825070953666327
-0.08329950782601547
-0.08400642484323556
-0.0845996566572814
-0.08505101054018027
-0.08533229079699801
-0.0854166657323147
-0.08529977961790358
-0.08499567605666794
-0.08451893707615259
-0.08388414173694153
-0.08310586613265702
-0.08219868338996048
-0.0811771636685519
-0.08005587416117026
-0.07884937909359278
-0.07757283871735035
-0.07625163400563918
-0.07491971248652825
-0.07361128364652833
-0.07236055400518897
-0.07120172711509842
-0.07016900356188391
-0.0692965809642112
-0.0686186539737848
-0.06816941427534808
-0.06798065224212188
-0.06804164420841116
-0.06830518034207737
-0.06872286391750254
-0.06924629524210706
-0.0698270716563505
-0.07041678753373082
-0.07096703428078499
-0.07142940033708872
-0.07175547117525632
-0.0718988157133387
-0.07184958554044073
-0.07163007580603008
-0.07126367262360174
-0.07077375913968936
-0.07018371493076048
-0.06951691419390181
-0.06879672755613371
-0.06804652267751547
-0.06728966425114491
-0.06654902305384829
-0.06583806564577224
-0.06516179828180287
-0.06452492274561931
-0.06393213785393947
-0.06338813945652033
-0.06289762043615732
-0.062465270708684816
-0.06209577722297582
-0.06179382396094214
-0.0615636688034446
-0.06140113714452541
-0.061294287703496035
-0.06123088654370197
-0.06119869676152747
-0.06118547848639531
-0.061178988880767435
-0.06116698214014416
-0.06113720949306487
-0.06107741920110743
-0.06097566635135743
-0.06082642774393545
-0.060630235236815315
-0.06038785410305373
-0.06010004664874631
-0.05976757221302697
-0.05939118716806884
-0.05897164491908345
-0.058509695904321445
-0.05800608759507194
-0.05746178625924361
-0.05688254611881724
-0.056278743390892914
-0.05566093988446701
-0.055039694441574374
-0.05442556293728874
-0.053829098279722404
-0.053260850410026754
-0.05273136630239176
-0.052251189964046124
-0.05183059117780133
-0.051473727845929726
-0.051178743883705004
-0.05094856782095438
-0.05078382420471055
-0.05068091270142237
-0.05063623632216904
-0.05064620142265942
-0.05070721770323298
-0.05081569820885921
-0.0509676274055877
-0.051148845539603374
-0.051334928690335985
-0.051501000367879246
-0.05162218742695742
-0.051673620066924594
-0.05163043183176513
-0.05146775961009354
-0.05116074363515409
-0.05068452748482171
-0.05001550703731215
-0.04916071583776086
-0.0481589243591394
-0.04705037531260589
-0.04587531475394851
-0.04467399208358584
-0.04348666004656647
-0.042353574732568885
-0.04131499557590203
-0.040411185355504774
-0.03968087538089542
-0.03912346592426624
-0.038696645550973005
-0.03835609470758504
-0.03805749718530214
-0.037756540119953615
-0.03740891399199952
-0.03697031262652982
-0.03639643319326432
-0.035642976206553274
-0.03466686174376252
-0.03345760805780313
-0.03204012689517482
-0.03044110981574153
-0.028687251723997623
-0.026805250869067352
-0.024821808844705084
-0.02276363058929568
-0.020657424385853593
-0.018529901862023773
-0.016407167737102612
-0.014298212187067075
-0.012193000341610225
-0.010080506979995784
-0.007949710226117093
-0.005789591548498058
-0.0035891346000338983
-0.0013373217372154309
0.0009768624990946669
0.003364430223403864
0.005836205459238664
0.008397579883423125
0.011047762625847848
0.013785620423562728
0.01661001513776854
0.019519805279228346
0.02251384601407493
0.025590989163811098
0.02875008320530953
0.03198997327081245
0.03530962122272843
0.03871168573478062
0.04220313364376402
0.04579117168391215
0.049483003244827836
0.05328582837148428
0.05720684376422415
0.06125702699851923
0.06545989712548363
0.06981494080986803
0.07431801997804258
0.07895912563959884
0.08372121871501079
0.0885869746283349
0.09353920305677231
0.09856084793066827
0.10363498743351257
0.1087448340019389
0.11387373432572608
0.11900516934779651
0.12412292601118959
0.12921676331778476
0.1342837055694551
0.1393213449673117
0.14432740796561008
0.1492997552717494
0.15423638184627403
0.15913541690287228
0.16399512390837676
0.16881390058276433
0.17359023362480253
0.17832112506218692
0.18300168631590444
0.1876270353224615
0.19219242427150893
0.19669323960584212
0.2011250020214001
0.2054833664672669
0.2097641221456704
0.21396319251198337
0.21807648040761377
0.22209419037941827
0.22599919149345868
0.2297739984689479
0.23340126027824326
0.23686376014684687
0.24014441555340454
0.243226278229707
0.24609253416068866
0.24872650358442877
0.25111187138262797
0.2532416068005742
0.2551208129308647
0.25675554056931416
0.25815197476488166
0.25931643481967076
0.26025537428892914
0.2609753809810491
0.261483176957567
0.2617856185331635
0.2618896312242383
0.26179954677883854
0.261516167684517
0.2610401734184613
0.2603723777110032
0.25951372854561866
0.2584653081589285
0.25722833304069725
0.25580415393383416
0.25419425583439265
0.25240016614058747
0.25041780585083934
0.24824047481079475
0.24587244977797063
0.24331837123168862
0.24058267332040545
0.23766958386171383
0.2345831243423422
0.23132710991815464
0.22790514941415088
0.22432070908143298
0.22058004249165322
0.2166934131294122
0.21267119544853694
0.20852355757198834
0.20426046129186437
0.1998916620693985
0.19542671264110434
0.19087497383721017
0.18624560376322477
0.18154756047540177
0.17678990849881304
0.17198195721639511
0.1671328448092345
0.16225150312755326
0.15734665769070946
0.15242682768719684
0.1475003259746447
0.14257525907981775
0.13765952719861693
0.13276083967669638
0.12788751838798856
0.12304888861149267
0.11825416670274355
0.11351236268641166
0.10883228025630357
0.10422251677536117
0.099691463275662
0.09524730445841958
0.090898018693983
0.0866512776042769
0.08250889449541539
0.0784639238014564
0.0745085017117224
0.07063455808467109
0.06683381644789624
0.06309779399812715
0.05941780160122895
0.05578494379220223
0.05219011877518364
0.04862413370388663
0.04508450622765007
0.04157926874600756
0.0381171695711601
0.03470675068444457
0.03135634773633345
0.028074090046435025
0.024867900603493046
0.021745496065387157
0.01871438675913279
0.015781887068278794
0.012955770710607857
0.01024466201482667
0.007657072904179163
0.005201308971044681
0.002903832512962238
0.0007978665106601465
-0.0011199494169165684
-0.002853550815716641
-0.004406815498544417
-0.005783703355142295
-0.006997705593091343
-0.008077853434382911
-0.009054551814409457
-0.009958147935419916
-0.010818931266518329
-0.01166713354366522
-0.012532928769676766
-0.013446433214224677
-0.014437705413836988
-0.015536596606269965
-0.016761897461788522
-0.01811400466781137
-0.01959151990900722
-0.021192987136900994
-0.022916892569873303
-0.024761664693160372
-0.02672567425885477
-0.02880723428590447
-0.031004600060113564
-0.03331613209767141
-0.035753021870452144
-0.03834841029501883
-0.041137532505951944
-0.04415556590468755
-0.04743763015951785
-0.05101878720559069
-0.054934041244909824
-0.05921833874633494
-0.06390656844558149
-0.06903325986147998
-0.0746071863913959
-0.08059210202932172
-0.08694716680435173
-0.09363148301243653
-0.10060409521638246
-0.10782399024585139
-0.11525009719736141
-0.12284128743428628
-0.1306281678556398
-0.138816481129611
-0.14718492639523217
-0.15553523153979015
-0.16368832337005867
-0.17147694380701292
-0.1787456498858286
-0.1853508137558826
-0.19116062268075315
-0.19605509093327758
-0.19992609548072932
-0.20267701188094966
-0.20419024706695263
-0.2042997871569317
-0.20284496911817904
-0.19967694503218794
-0.19465868209465262
-0.1876649623007354
-0.17858238006658964
-0.16730934355516816
-0.1537560760328885
-0.1378446407723012
-0.11951161717730739
-0.09871048611907222
-0.07540710632089337
-0.04957915162026973
-0.02121611096890116
0.009680711567311361
0.04309819680826594
0.07901141045965984
0.11738360311298907
0.15816601021020207
0.20127437979298304
0.24656695307799018
0.2938849458173522
0.3430577586489838
0.3939029770966022
0.44622637156972467
0.49982189736366667
0.5544716946595434
0.6099460656428353
0.6658723653056354
0.7214890150825489
0.776054948320214
0.8288919480120522
0.8793779635021252
0.9269471104851362
0.9710896710064293
1.0113520934619904
1.047336992598445
1.0787031495130617
1.1051653751150052
1.1264752173237522
1.142400980648572
1.1527623651337573
1.157435237174242
1.1563516295156
1.1494997412540486
1.1369239378364437
1.1187247510602836
1.0950588790737072
1.0661391995782088
1.0322368293090356
0.9936833616884236
0.9508670939397895
0.9042290596181758
0.8541659827957888
0.8012101780943987
0.7459376822088298
0.6888931647351576
0.6305899281707076
0.5715099667413288
0.51211414225563
0.45285377296272117
0.39415161223629036
0.3363990463512763
0.27995609448386843
0.2251514087115067
0.1722822740128814
0.1216146082679336
0.07338296225785591
0.02779049281647001
-0.014996212417201255
-0.054853307676894315
-0.09168981808259881
-0.12544613585305373
-0.15609402030574845
-0.18363659785692033
-0.20810836202155766
-0.22957517341339612
-0.24810150878649057
-0.26331376835748743
-0.2752654190514247
-0.2842031396955718
-0.2903662391617399
-0.2939859696568656
-0.29528552672301084
-0.2944800492373635
-0.2917766194122362
-0.2873742627950676
-0.2814639482684215
-0.2742286081579517
-0.2658480315025603
-0.2565052511762895
-0.24637682623097032
-0.2356312590535592
-0.2244289953661384
-0.21292242422591537
-0.201255878025223
-0.18956563249151973
-0.17797988927803512
-0.16661865524211605
-0.15557488966301714
-0.14488873353165285
-0.1345858193260661
-0.12468372285942515
-0.11519196328002343
-0.10611200307128031
-0.09743724805174026
-0.08915304737507376
-0.08123669353007586
-0.07365750588830658
-0.06640317403344731
-0.059517287947738785
-0.0530448659381556
-0.047022869646796965
-0.04148020405088913
-0.036437717462782
-0.03190820152995261
-0.027870645115165012
-0.024247464373212062
-0.021068441714913375
-0.01834860760959125
-0.016041713572917768
-0.014092398531768082
-0.012445580390271252
-0.011046456029809405
-0.009840501309018618
-0.00877347106378862
-0.007791399107262356
-0.006840598229836835
-0.005867695714594387
-0.004834615796659907
-0.00374182256531408
-0.0025960632697969895
-0.0014043641366025443
-0.00017403036947840982
0.0010873538505744114
0.002371925365301382
0.003671542039193955
0.004977782759490457
0.006281946343503809
0.0075745105640911345
0.008844257074291956
0.0100794598318333
0.011268113817187774
0.012397935033575367
0.013456360506961728
0.014430548286059362
0.01530737744232694
0.016073448069969434
0.016715102397183736
0.01723083194933048
0.0176521944016602
0.018016002638397532
0.018358790566513485
0.018716813115725255
0.01912604623849687
0.019622186910038503
0.02024065312830669
0.02101658391400439
0.02198482040092803
0.023166540866730676
0.024545788567936475
0.026100038305049148
0.027806485901318553
0.0296420482027413
0.03158336307805991
0.03360678941876376
0.035688407139088295
0.03780401717601569
0.0399291501643365
0.04204655154639442
0.04415987026338288
0.046276192664804185
0.048402326122906764
0.05054479903268562
0.052709860811881906
0.05490348190098354
0.05713135376322471
0.059398888884585825
0.061711219320961526
0.06407163942077418
0.06647864143404612
0.06892962284547512
0.07143235573044512
0.07400893973565004
0.07666229204767036
0.07939460070176724
0.08220798622036896
0.08510450161307112
0.08808613608458685
0.0911598551524284
0.09434758343646872
0.09767396388123373
0.10116357191841957
0.10484091546688722
0.10873043493266699
0.11285650320895455
0.11724342567611543
0.12191544020167948
0.12689669135672835
0.1321889982871356
0.13772617479077523
0.14342902397134852
0.14921828141972757
0.15501461521394758
0.16073862591921587
0.16631084658790266
0.17165174275954914
0.17668171246086045
0.18132110038685237
0.18552438879953914
0.18935344344437297
0.19289110601562112
0.1962201506947215
0.19942328415027827
0.20258314553806192
0.20578230650101226
0.20910327116923352
0.21262847616000097
0.2164402825955387
0.2205947439426454
0.22506319982187817
0.22979988644000654
0.23475897249096317
0.23989455915585214
0.24516068010294076
0.25051130148766787
0.25590032195263523
0.2612815726276164
0.26660881933951275
0.2718463376924411
0.2769933789801655
0.2820563745335339
0.2870416881705568
0.29195561619641663
0.29680438740345855
0.3015941630711999
0.3063310369663204
0.3110210353426719
0.31567011675369155
0.32028278212725536
0.32485873445750485
0.3293966039280755
0.33389495320976625
0.3383522774605471
0.3427670043255511
0.34713872022078374
0.3514753298621377
0.3557765516960275
0.36004001378303496
0.3642655216224618
0.36846021362531045
0.3726329165810812
0.3767925687490272
0.38094821985816185
0.3851090311072517
0.38928427516482395
0.3934833361691582
0.3977157097282946
0.40199100242582375
0.40630719020320943
0.4106201982762601
0.4148766036355309
0.4190230947413302
0.4230064715237268
0.4267736453825428
0.43027163918736006
0.4334475872775142
0.4362487354621
0.4386224414086863
0.44053750250522294
0.4420415016749573
0.44320026939861573
0.4440797476266797
0.4447459897793887
0.44526516074673733
0.44570353688847925
0.4461275060341221
0.4466035674829323
0.44719833190481156
0.44796064432940075
0.44887171412532834
0.4498968167103001
0.45100133897177697
0.452150779266978
0.45331074742287797
0.4544469647362094
0.45552526397346027
0.456511589370876
0.45737199663556655
0.4580742096875384
0.45859212486261874
0.4589012247971423
0.4589771035972015
0.458795466838645
0.45833213156707786
0.4575630262978621
0.45646419101611724
0.4550117771767176
0.45318204770429593
0.45096657302053506
0.4484178191260497
0.44560355951850533
0.4425916791653252
0.4394501745036872
0.4362471534405279
0.43305083535253924
0.42992955108617065
0.4269517429576272
0.42418596475287257
0.4216795069857652
0.4193919302673577
0.41726034477926005
0.41522197215678186
0.41321414550498625
0.4111743093986966
0.40904001988248956
0.40674894447070165
0.4042388621474235
0.40144766336650456
0.3983285326220121
0.39489868375460996
0.39118375578905723
0.387214001742273
0.3830246669493898
0.37865093214716794
0.37412791347398666
0.36949066246985285
0.3647741660763923
0.3600133466368582
0.3552373453251718
0.35045044032128897
0.34565012245269244
0.3408338178259658
0.3359988879493119
0.3311426297325611
0.3262622754871629
0.32135499292619435
0.31641788516435154
0.3114479907179581
0.30644501503946514
0.30142077352891244
0.2963904075818188
0.29136899413802997
0.28637154553901806
0.2814130095278746
0.27650826924931876
0.2716721432496881
0.2669193854769485
0.2622646852806843
0.2577173660010097
0.2532624086065788
0.24887778388451393
0.24454139746716066
0.24023109038849225
0.23592463908410083
0.23159975539120628
0.2272340865486475
0.22280521519689087
0.2182906593780218
0.21367308105046212
0.2089595862022508
0.2041644184903786
0.19930175794530638
0.19438571999912307
0.1894303554855362
0.18444965063988086
0.17945752709911153
0.17446784190181025
0.16949438748817724
0.1645517491480919
0.15965859348801528
0.1548347739012404
0.15010007944413734
0.14547423457470315
0.14097689915255474
0.13662766843893626
0.13244607309671058
0.12845157919036881
0.12466358818602052
0.121094771434142
0.11772461671074705
0.11452228039726592
0.11145685115360396
0.10849735304129293
0.10561274552348451
0.102771923464957
0.09994371713210909
0.09709689219296581
0.09420014971717196
0.09122824878238417
0.08818714726316676
0.08509269125392546
0.08196066645662932
0.07880679397487349
0.07564673031387358
0.07249606738047133
0.06937033248312943
0.066286907766469
0.06326648090230261
0.0603227171485933
0.05746193593474354
0.054688210560283
0.052005629953240574
0.04941829358062412
0.04693031144841678
0.04454580410158093
0.042268902624054513
0.040103748638754044
0.03805449430757167
0.036123476318829915
0.034303192514133676
0.03258284523452314
0.030951645034382955
0.029398814388899464
0.027913587288127893
0.02648520828161697
0.02510293245789066
0.02375602544445216
0.022433763407779937
0.021127286946907
0.01983802607684157
0.018570963595006373
0.017331096139388987
0.016123430886955087
0.014952985553646858
0.013824788394384308
0.012743878203064048
0.011715304312560536
0.010744126594724755
0.009834150312796702
0.008981980241472192
0.008181680628713026
0.0074273233082566975
0.006712990652818133
0.006032775574089097
0.005380781522739334
0.004751122488414774
0.004137922999739728
0.0035353181243144554
0.0029383722091493383
0.0023475439150913366
0.001765257502332248
0.0011939505322832332
0.0006360711053328173
9.407786084653959e-05
-0.0004295600228326436
-0.000932362828384917
-0.001411840299512771
-0.0018654916409419084
-0.0022912758901512584
-0.0026899756759958446
-0.003063419415102708
-0.003413426779447527
-0.0037418069020286005
-0.004050358376867338
-0.004340869259007549
-0.0046151170645160906
-0.004874868770482614
-0.005121880815019258
-0.005356637799009479
-0.0055717987502327945
-0.005757022850844418
-0.005901952718330607
-0.005996220431200296
-0.0060294475289851684
-0.00599124501223976
-0.005871213342541431
-0.005658942442490085
-0.005344011695708751
-0.004920871053572492
-0.004415064149131541
-0.003864332955067536
-0.0033064377773935685
-0.002779128383145312
-0.00232014400038129
-0.0019672133181832018
-0.0017580544866548286
-0.0017303751169232984
-0.001921872281138234
-0.0023616721457037967
-0.0030227805834850702
-0.0038555950658016227
-0.0048104404579550255
-0.0058376310862693175
-0.006887470738091718
-0.007910252661791316
-0.008856259566761056
-0.009675763623415936
-0.010319026463194329
-0.010743552438052093
-0.010955743920365012
-0.010982201621391813
-0.01084957960306818
-0.01058452138835259
-0.010213659961226232
-0.009763617766692984
-0.009261006710779816
-0.00873242816053618
-0.008204472944034508
-0.007701529385201752
-0.00723276785561631
-0.006800904524631574
-0.006408631500838265
-0.006058632790944429
-0.005753581862681325
-0.005496141644802728
-0.005288964527085219
-0.005134692360328194
-0.0050359564563538335
-0.004994590722575149
-0.0050068008036772875
-0.005066339258494377
-0.005166938110778301
-0.005302318845303494
-0.00546619240786728
-0.005652259205289889
-0.005854099038416567
-0.006065163966348297
-0.006279309629483075
-0.006489910548735356
-0.006686656108599813
-0.006857589462298905
-0.0069907410242341745
-0.007074136034327959
-0.007095794558025062
-0.007043731486291783
-0.006905956535616048
-0.006670474248007242
-0.0063252839909969955
-0.005861678347346345
-0.005295894019970876
-0.004655572753193614
-0.003968410006304142
-0.00326209606411392
-0.002564316036955792
-0.0019027498606840987
-0.0013050722966753642
-0.000798952931827518
-0.0004120561785600059
-0.00016726796787761212
-5.0294841719206586e-05
-2.940441208169783e-05
-7.275891011370513e-05
-0.0001485153924857698
-0.00022482574139002197
-0.00026983666454024604
-0.00025168969517207207
-0.00013852119204242337
0.00010153766056959388
0.0004947073874722579
0.0010218730743480227
0.0016421223384267827
0.002314409091511722
0.0029976924198846155
0.003650936584305588
0.004233111020012465
0.004703190336722186
0.005020154318629689
0.005142987924407955
0.005037532127597258
0.004726225072830458
0.004259410404890435
0.0036876330112169914
0.0030614429537290174
0.0024313954688228445
0.0018480509673742792
0.0013619750347364547
0.0010237384307413095
0.0008839170896988288
0.000986541430740874
0.001319899043214827
0.001844106847406597
0.002519069397412062
0.003304696421805328
0.004160902823638674
0.0050476086804430486
0.005924739244226935
0.006752224941478139
0.007490001373162041
0.008101991968154976
0.008587050860150559
0.008962131824133466
0.009244346711273613
0.00945081254721948
0.009598651532097225
0.009704991040511972
0.009786963621546761
0.009861706998763079
0.009946364070200558
0.010056586159797503
0.010194501280870285
0.010355058560297756
0.010533146092835868
0.010723657147719104
0.010921490168660133
0.011121548773850036
0.011318741755958293
0.011507983082132484
0.01168419189399853
0.01184264671746749
0.011981931884389094
0.012102433288101452
0.012204556489636238
0.012288650062942632
0.012351668165217688
0.012393009892305917
0.012414645386395886
0.012418537988458255
0.012406644238247198
0.012381879972826793
0.01235643758767313
0.012347680595318884
0.01237302192005102
0.012449867684938908
0.01259561721183517
0.01282766302137494
0.013163390892683388
0.013620180806561346
0.014215406774761258
0.014964063860562895
0.015857628115689484
0.016874130101458523
0.017991435920368077
0.019187404873699163
0.02043988946151517
0.021726735382662326
0.02302578153477027
0.024314860014250563
0.02557179611629833
0.026776351607032244
0.027928154549014966
0.029038465050415203
0.030118683578814212
0.03118020380057519
0.03223441258084501
0.033292689983552594
0.03436640927141059
0.03546693690591318
0.03660563254733858
0.03779365292950417
0.03904007795431131
0.04035273858158721
0.041739442085059704
0.043207988937238324
0.04476617280941652
0.04642178057166912
0.04818259229285552
0.050056381240616045
0.052050913881375546
0.054173396295852175
0.056424995633941086
0.0588031638628267
0.061305292079611294
0.06392876458017778
0.06667095885919413
0.06952924561010888
0.07250098872515541
0.07558354529534796
0.07877426561048562
0.0820703546333662
0.0854674516960588
0.08896020757392478
0.09254325092126786
0.09621120359117183
0.09995868063550588
0.10378029030491952
0.10767075170683733
0.11163969777313722
0.11568557262014016
0.11979430850712443
0.12396109071456692
0.12818709684985025
0.1324736671211239
0.13682220552837895
0.14123417986345552
0.14571112171003545
0.1502546264436499
0.15486635323167136
0.1595480250333216
0.1643005918503147
0.1691150152303441
0.17397567744147957
0.17886690651766735
0.18377309428469393
0.18867869636019607
0.19356823215365135
0.19842628486638716
0.20323750149157205
0.20798659281422388
0.21265988889174223
0.21726310162000204
0.22181508289509225
0.22633499561203618
0.23084206645769875
0.23535558591079447
0.23989490824187915
0.24447945151335723
0.24912869757947603
0.25386219208633104
0.25869607133728006
0.26360192731070037
0.26852048990495814
0.2733919317603059
0.27815649196139486
0.28275448399494674
0.28712628779208305
0.2912123470757724
0.294953169360827
0.29828932595390606
0.3011659833898485
0.3035885851532969
0.3056053915524636
0.307265637215466
0.30861862056226463
0.3097137038046678
0.31060031294632745
0.31132793778274215
0.31194613190125436
0.31250451268105367
0.3130493607121343
0.3135802523952104
0.31406282071499075
0.31446199552156023
0.3147427704568482
0.3148702029546299
0.3148094142405256
0.31452558933200114
0.3139839770383677
0.31314988996078236
0.3119908167232234
0.31049482517781357
0.30868600718390937
0.3066018210941192
0.3042795273732196
0.30175618859815906
0.2990686694580541
0.2962536367541938
0.2933475594000348
0.2903867084212059
0.2874047312677349
0.2843992950122047
0.28134058343892204
0.2781978954257283
0.27494033196263196
0.27153679615181436
0.26795599320762403
0.2641664304565829
0.260136417337379
0.2558340654008748
0.2512304353593163
0.24634450223669585
0.24123261033032767
0.23595190354135254
0.2305593278830772
0.22511163148098254
0.2196653645727153
0.2142768795080964
0.20900233074911256
0.2038976748699254
0.19901552648602702
0.19435846342437846
0.1898890182227437
0.18556841117046535
0.18135766466905104
0.17721760323218333
0.17310885348571042
0.16899184416765503
0.16482680612820508
0.16057377232972384
0.15619486498268353
0.15168961897240255
0.1470881610473784
0.1424213258960534
0.13771975031903577
0.13301387322910824
0.12833393565121906
0.12370998072249126
0.11917185369221328
0.11474920192184752
0.11047034068502107
0.10634402868856065
0.10236260025746147
0.09851769018941384
0.09480073539427565
0.09120297489407708
0.08771544982301581
0.08432900342746236
0.08103428106595449
0.07782173020920292
0.07468220278867309
0.07161702958084255
0.06863650629609014
0.06575102810225927
0.0629707922793619
0.060305798219581604
0.05776584742727051
0.05536054351895237
0.053099292223319376
0.050991301381235275
0.049044803801529126
0.0472535210045453
0.045600564348987856
0.044158978598217345
0.0429333852823794
0.04187074938899291
0.04091945314557792
0.04002929498632873
0.03915148920766907
0.038238665968253524
0.03724565032054325
0.0361436009522847
0.034918512400921004
0.03355827348889415
0.032052188900874835
0.030390979183765165
0.028566780746696215
0.026573145861030198
0.024405042660358634
0.022058855140503993
0.01953217599074672
0.016819886536670076
0.01391448090872544
0.010809725412812329
0.007500802140280515
0.003984309044712566
0.0002582599419183422
-0.0036779154900590414
-0.00782337171094969
-0.012175847318250266
-0.016731410547849372
-0.021479435797817283
-0.026402904841408486
-0.031483189398079044
-0.03670024532505937
-0.04203261261734514
-0.047457415407706746
-0.05295036196667925
-0.058485744702572895
-0.0640364401614629
-0.06957591539140198
-0.07511956653338124
-0.08072321733899007
-0.08644298164830706
-0.09233355743918849
-0.09844822682725249
-0.10483885606589431
-0.11180790029007981
-0.11957216947042769
-0.1278606628215647
-0.13641428780632628
-0.14489929811385233
-0.15290839943462164
-0.16005031671060588
-0.16595377598319314
-0.17026750439317992
-0.17266023018077406
-0.17282068268559567
-0.17045759234667637
-0.16529969070245704
-0.1571008497691716
-0.14575568665432032
-0.13130099078252389
-0.1137989775137063
-0.09333186330721537
-0.0700018657217943
-0.04393120341561752
-0.015262096146248353
0.015843235229314967
0.0492025687546885
0.08461846004036899
0.12199067448243969
0.16132039317715363
0.2025944162983923
0.24577954292058882
0.2908225710188036
0.3376502974686458
0.38616951804635535
0.43626702742871676
0.48780961919314875
0.5406403247601704
0.5944857856604647
0.6489504197109566
0.7036137145438601
0.7580351566919281
0.811754231588552
0.8642904235676637
0.9151432158638292
0.9637473693674035
1.009113537280371
1.0505450000854526
1.0875648414533616
1.1198227767064108
1.1470257463642701
1.168934248042256
1.1853623364513801
1.1961776233983095
1.2013012777853962
1.20070802561066
1.194426149967792
1.1825360617033038
1.165131635008502
1.1423157326133804
1.114242446897453
1.0811194273359288
1.043207880499662
1.0008225720080084
0.9543318323871449
0.9041575512117579
0.8507751751521633
0.7947147126518966
0.7365892529523177
0.6770990430177455
0.6169997112497507
0.5570961341232488
0.49773744699397127
0.4390933997844187
0.3815143844655667
0.3253282186542869
0.270840145613245
0.21833142929280586
0.16801746490446645
0.12004062568238454
0.07451786440602616
0.03154355950074518
-0.008810484962300882
-0.04649503926607134
-0.08148344804771561
-0.11377163029850608
-0.14337807936390026
-0.17034197263476525
-0.19466391618403345
-0.2162941418746966
-0.2352011819617533
-0.25137614305434164
-0.2648327061157669
-0.2756071264634796
-0.28375823376909487
-0.28936743205837434
-0.2925386997112414
-0.29340003253271657
-0.29202337450274035
-0.28844101987415816
-0.2829102057215255
-0.275682983892683
-0.2670010108954724
-0.25709554789774924
-0.24618746072736772
-0.23448721987219756
-0.22219490048010565
-0.2094999197697008
-0.19657190992987372
-0.1835583637108619
-0.17059563765025523
-0.1578096929456615
-0.14531609545468438
-0.13322001569494488
-0.12161622884406037
-0.11058911473966504
-0.10021265787938986
-0.09054975041737748
-0.08162663887990919
-0.07342555575414643
-0.06591613916700628
-0.05905763190541998
-0.05279888141631845
-0.04707833980664597
-0.041824063843346956
-0.036953714953378666
-0.032374559223700555
-0.027984433751216075
-0.02370915952073752
-0.019533033817768917
-0.01550532010245984
-0.011649174196730977
-0.007985076518352556
-0.0045344467156713435
-0.0013196436676057108
0.0016360345163490158
0.00430835049612595
0.006672653637351261
0.008725409939854514
0.010491765426818863
0.011998006848502267
0.013269481724589114
0.014330598344189423
0.0152048257658394
0.01591469381750074
0.016481793096561715
0.016926774969835818
0.01726950718062486
0.017535818201293876
0.017760086355583717
0.01797644070426971
0.0182180710775546
0.0185172280750657
0.01890522306585701
0.01941242818840792
0.020068276350624362
0.020901261229837462
0.021938447234624188
0.023182950237865187
0.024604540690593667
0.026169611034142757
0.027843614479272676
0.02959106500616819
0.031375537364441444
0.03315966098020266
0.03490510167728314
0.03657257995601248
0.038125227644911615
0.039567378693644975
0.04091559110790706
0.04218366251337865
0.04338535688159608
0.04453440452994823
0.04564450212167966
0.04672931266588748
0.047802465517524255
0.048877556377395076
0.049968235501878344
0.05109278541388567
0.05227634814805277
0.053544587119524326
0.05492313208930061
0.05643757919586658
0.058113491860293104
0.05997640091969253
0.062051803615506475
0.06436516353502894
0.06694147521774478
0.06978119349212888
0.07284765715123416
0.07610108459506196
0.07950166056946951
0.0830095361661661
0.08658482882271745
0.09018762232254045
0.09377796679490875
0.09731587871494787
0.10076172290731757
0.10409875076320194
0.10734570636168389
0.11052435615712118
0.11365643294972871
0.11676363588557205
0.1198676304565738
0.12299004850050783
0.1261524882010051
0.12937651408754747
0.13268352280160958
0.13608627509935903
0.13958383947639172
0.14317403699861622
0.14685516479669036
0.15063647807640096
0.15451881687547098
0.15849770211183228
0.16256865645977028
0.1667272043499166
0.17096881872562275
0.17528532250476123
0.17966260029813194
0.18408599333755038
0.18854084461118542
0.19301249886355212
0.19748630259551928
0.20194760406430137
0.20638175328346678
0.21077410202292987
0.2151102343684906
0.21939269733432515
0.22365230552463694
0.2279225533488955
0.23223693697292455
0.23662895431889308
0.24113210506532443
0.24577989064708736
0.2506058142554046
0.25564338083784494
0.2609256683220585
0.26645184473118905
0.27216317636355586
0.27799526923644163
0.2838837311234833
0.2897641715546631
0.2955722018163173
0.30124343495112854
0.3067134857581325
0.31191797079271105
0.3167930051075714
0.32131704757088514
0.32554264009488953
0.3295298004897634
0.33333854832203924
0.3370289049145948
0.34066089334666333
0.3442945384538222
0.3479898668280034
0.3518069068174848
0.3558053025023073
0.3600091420221511
0.3643787647716659
0.3688678775293807
0.37343018883017687
0.3780194089652825
0.3825892499822794
0.38709342568509486
0.39148565482758785
0.39571967069428143
0.3997494476934616
0.40355253757077847
0.4071498109441668
0.4105667887975632
0.413828993871251
0.4169619506618668
0.41999118542239405
0.4229422261621687
0.42584060264687357
0.4287118463985442
0.4315813239909732
0.4344563146828606
0.43731003550561665
0.44011193651615416
0.44283146952773333
0.4454380881099669
0.44790124758881505
0.45019040504658975
0.4522750193219507
0.45412455100990984
0.45570870239655487
0.45702557152379236
0.45812806364505065
0.4590753353855644
0.45992654512691655
0.4607408530070417
0.4615774209202213
0.4624954125170898
0.46355399320462903
0.46481233014617274
0.4663292020304152
0.46811284662773034
0.47007150101986966
0.4721016532210183
0.47409979300170835
0.4759608530113575
0.47757836927423747
0.47885313837290205
0.47968646219221345
0.4799796462330003
0.4796344159934026
0.4786117512780113
0.47699281743338984
0.47487333224949907
0.4723490171322685
0.4695155971035968
0.4664688008013505
0.4633043604793639
0.46011801200744107
0.4570054948713531
0.45406227141588595
0.45133973179640957
0.4487976100681715
0.4463842149650268
0.4440478588368011
0.44173685764928633
0.4393995309842451
0.43698420203940647
0.4344391976284697
0.4317128481811007
0.4287536450494868
0.42553745116194375
0.42209849010614114
0.41847848234638063
0.41471915196293546
0.41086222665204447
0.4069494377259177
0.40302252011273054
0.3991232123566307
0.39529325661773
0.391574266390002
0.38798222825727435
0.38447708934760644
0.3810113913021283
0.37753767937794225
0.37400850244811523
0.3703764130016869
0.36659396714366077
0.3626137245950134
0.3583882486926865
0.353870218154928
0.34903656240104897
0.34391858696010336
0.3385550005919835
0.33298451567254816
0.3272458481936311
0.3213777177630276
0.31541884760450445
0.30940796455779396
0.3033837990786039
0.2973850498077213
0.29144176147095696
0.285564070564077
0.2797593281789265
0.2740348890233117
0.26839811142100967
0.26285635731176415
0.2574169922512935
0.25208738541127823
0.24687491632440436
0.241786966759188
0.23682307272612352
0.2319642399717584
0.22718880642342357
0.22247511362441708
0.21780150673401089
0.21314633452743986
0.20848794939590906
0.20380470734658987
0.1990749680026283
0.19427713219904794
0.1894014963162101
0.18446714062898145
0.17949741721420673
0.1745156817646921
0.1695452935892145
0.16460961561251675
0.15973201437531737
0.1549358600342962
0.1502445263660152
0.14568136265611767
0.14125942906262284
0.13696623228362173
0.13278538352371164
0.12870049760345745
0.1246951695421589
0.1207484729302751
0.11683869145427198
0.1129466345716029
0.1090530979442932
0.10513888640311563
0.10119450155978045
0.09723517059605752
0.09327998918438384
0.08934803920177388
0.08545838872981046
0.0816300920546514
0.07788218966702551
0.07423370826223948
0.07070366074016853
0.06731103136506582
0.06406742848072447
0.060965199610983144
0.05799357213333611
0.05514175962985208
0.05239896188717136
0.04975436489651158
0.04719714085365896
0.04471644815897454
0.04230143141739115
0.03994122016637322
0.03762418129026432
0.03533665868876659
0.03306464900731865
0.030794135095935225
0.02851108600920082
0.02620145700627405
0.02385118955088557
0.02144621131134204
0.018972436160520408
0.016415781164060818
0.013774173497215911
0.011078637536660583
0.008365834250651526
0.005672410812019645
0.003035000598167848
0.0004902231910746437
-0.0019253156227109006
-0.004175023852065694
-0.006222323301294666
-0.00803066652265658
-0.009578163978796416
-0.010884334046126527
-0.011975971338470653
-0.012879884265077492
-0.013622895030624721
-0.014231839635216301
-0.014733567874383284
-0.015154943339083104
-0.015522843415700635
-0.01586415763584059
-0.01620401883453101
-0.016562436031030095
-0.016958505422808634
-0.017411337002763993
-0.017940054559220587
-0.01856379567592874
-0.01930171173206694
-0.020172967902240282
-0.021196743156481138
-0.0223922190143004
-0.02376329322683571
-0.025268302687339126
-0.02685714883786218
-0.028479746915882134
-0.030086025954304492
-0.03162592878146135
-0.03304941202111204
-0.0343064460924421
-0.03534701521006481
-0.036121142410209334
-0.03659836725841785
-0.036807743906204095
-0.03678967563180359
-0.03658457950887836
-0.03623288640651809
-0.03577504098923837
-0.03525150171698275
-0.034702316206344175
-0.03416473377935801
-0.033677947649570744
-0.03327539460728132
-0.032970762751272
-0.03277386709020676
-0.03269451577208167
-0.03274251008422603
-0.03292764445330154
-0.03325970644530244
-0.033748476765555556
-0.034403729258720615
-0.035235226881883235
-0.03623948797526921
-0.0373703212198539
-0.038572934080842974
-0.039792527162774774
-0.04097429420952066
-0.042063422104283564
-0.04300509086960014
-0.043744473667339225
-0.04422673679870245
-0.04439704438145349
-0.04422293973950168
-0.04374612573115479
-0.04302363726750605
-0.042112502398981205
-0.04106974231533897
-0.03995237134567017
-0.0388173969583993
-0.03772181976128245
-0.03672263350140868
-0.035876822962530246
-0.03522578344654012
-0.0347578772226507
-0.03445019070479408
-0.03427980344623494
-0.03422378813957082
-0.03425921061673185
-0.034363129848980836
-0.034512597946913005
-0.03468466016045635
-0.034856355139184676
-0.03500796420329334
-0.03513112030898962
-0.03521992984768538
-0.03526849235012548
-0.03527090048638721
-0.035221240065880635
-0.03511359003734827
-0.03494202248886533
-0.03470060264783992
-0.03438338908999549
-0.033989398903798165
-0.03353547139634779
-0.03304243922447652
-0.03253112818434931
-0.03202235721146359
-0.03153693838064953
-0.031095676906069757
-0.030719371141219757
-0.030428812578927576
-0.0302447857453154
-0.03018225019528946
-0.030234697209362036
-0.03039066388351417
-0.030638680453059616
-0.030967270292644566
-0.03136494991624797
-0.031820228977181265
-0.03232161026808874
-0.032857589720947517
-0.03341665640244778
-0.03398645947525631
-0.03455148433865294
-0.0350954618415462
-0.03560211597217717
-0.03605516385811911
-0.03643831576627834
-0.036735275102893844
-0.03692598000804802
-0.03699085103388157
-0.03691441908862546
-0.036687303654894865
-0.03632389968735985
-0.03584436894770358
-0.03526884866899403
-0.034617451555684374
-0.033910265783612545
-0.03316735500000141
-0.03240875832345863
-0.031654490343976945
-0.03092454112293374
-0.03023611012631056
-0.02959530802434806
-0.029005454891890787
-0.028469846275168326
-0.027991753191794914
-0.027574422130769622
-0.027221075052476982
-0.026934909388685993
-0.026719098042550557
-0.02657678938860949
-0.026509271813090856
-0.026510266191332524
-0.02657153146857148
-0.02668480206005035
-0.026841787852396968
-0.02703417420362403
-0.027253621943128862
-0.027491767371693943
-0.027740222261486765
-0.027990573856059384
-0.02823332972858841
-0.02845451789386276
-0.0286389662442985
-0.028771478093765682
-0.028836832158993568
-0.028819782622054983
-0.02870505913640772
-0.028477366826894543
-0.02812138628974295
-0.027621773592565544
-0.02697237447471486
-0.02620698120429472
-0.02537019752784795
-0.02450660286079405
-0.02366075208993753
-0.022877175573467908
-0.022200379140959486
-0.021674844093371493
-0.021345027203048324
-0.021255360713719033
-0.021435781126579873
-0.02185170170170682
-0.022450548370205037
-0.023179721778543712
-0.023986598044577135
-0.024818528757544516
-0.025622840978070053
-0.026346837238162866
-0.0269377955412165
-0.027342969362009948
-0.02752319795331201
-0.027501624338131622
-0.027319198398505988
-0.0270168469162914
-0.026635472144729472
-0.02621595180844638
-0.02579913910345342
-0.025425862697146466
-0.025136926728306787
-0.02497311080710027
-0.024964484288980297
-0.025090810394517646
-0.025317051730697038
-0.025608144382049936
-0.02592899990449244
-0.026244505325325594
-0.026519523143235937
-0.026718891328294234
-0.026807423321956486
-0.026749908037063487
-0.026518407324637165
-0.026120243066648053
-0.02557336275668242
-0.02489569158489654
-0.024105130212832414
-0.023219554773416466
-0.022256816870959987
-0.02123474358115898
-0.020171137451095198
-0.01908377649923433
-0.017990033177133772
-0.016905362141594306
-0.015844606613236962
-0.014822585105529883
-0.013854091603326804
-0.01295389556286616
-0.012136741911770886
-0.01141735104905013
-0.01081041884509679
-0.010330616641688817
-0.00998154560182523
-0.009710380803824038
-0.009446317152153475
-0.00911851743482469
-0.00865611991123299
-0.007988238312160665
-0.007043961839773117
-0.005752355167620557
-0.00404245844063833
-0.0018432872751486234
0.0008949774327764067
0.004110972496174101
0.007706987813244749
0.011585312571836252
0.015648260488413966
0.019798169808057625
0.023937403304463624
0.02796834827993865
0.03179341656540902
0.035315044520415034
0.03845723682692141
0.041260228432786934
0.04380328437023006
0.046165722874873506
0.04842432845261766
0.05065255570156884
0.05292581485095294
0.05531934613602323
0.05790819974286005
0.0607672358083627
0.0639575278236608
0.06746457316438012
0.07124770007398043
0.07526602253263914
0.07947846447136303
0.08384375977198216
0.08832045226715292
0.09286689574035042
0.0974412539258802
0.10200150050887039
0.10651190776832728
0.11097354159039344
0.11540036162530679
0.11980615262039834
0.12420450927382592
0.1286088362345658
0.1330323481024247
0.1374880694280323
0.14198883471284446
0.14654728840913575
0.15117376297017832
0.15586596627583343
0.1606169006920539
0.16541937215585545
0.17026599655508487
0.17514919972841142
0.18006121746533071
0.18499409550615703
0.18993968954203547
0.19488966521493334
0.19983227254614186
0.20473613647478797
0.2095624481360761
0.21427219631145455
0.21882617973319785
0.22318500708439934
0.22730909699898338
0.2311586780616961
0.23469378880811026
0.23787427772461844
0.24066808233894968
0.2430955273334324
0.2452052504581608
0.24704159093457795
0.24864786250477738
0.25006776491780236
0.2513453839296492
0.25252519130326145
0.2536520448085374
0.25477118822232514
0.2559192016714975
0.25707538352281223
0.25819678267630514
0.25924078050919963
0.2601651444056709
0.26092802775684454
0.26148796996079804
0.2618038964225598
0.2618351185541092
0.26154133377437727
0.2608890137726365
0.2598868887373274
0.25856093875554687
0.2569375762395244
0.2550435996084388
0.2529061932884209
0.25055292771255144
0.24801175932086553
0.24531103056034642
0.24247946988492955
0.23954287485693704
0.2365050632760882
0.23336099747657926
0.23010599658297018
0.22673576572677018
0.22324639604644475
0.21963436468740577
0.21589653480201798
0.21203015554959506
0.2080328620964079
0.20390386723002357
0.1996510369256084
0.19528612588553612
0.1908212812195856
0.18626903448201343
0.1816423032340284
0.17695439104378935
0.17221898748641212
0.16745015800279253
0.16265269476172348
0.15783047318731852
0.15299398001446085
0.14815316151389477
0.14331769385098805
0.1384969841967287
0.13370017072772036
0.12893612262619158
0.12421344007998229
0.11954045428255211
0.11492522743297726
0.11037422064254676
0.10588383778350355
0.10144584872514509
0.09705173422216598
0.09269270603488455
0.08835970692923141
0.08404341066612685
0.07973422090149782
0.07542227022846869
0.0710974220200342
0.06675129847119814
0.062390591354735334
0.058028738333523455
0.05367894428068309
0.049354145074954545
0.04506700760069448
0.04082992974788285
0.03665504041211237
0.032554199494595225
0.028538997902160346
0.024620921764160995
0.020812467126481153
0.017126460817120513
0.013575464117112444
0.010171769313112668
0.006927399697390402
0.003854109567834554
0.0009633842279509136
-0.001733560013133597
-0.004225775840677181
-0.006505130740290224
-0.008584178475322423
-0.01048555972838892
-0.01223224671535143
-0.013847480646452887
-0.015354771726318675
-0.016777899153953925
-0.01814091112274849
-0.019468124820472932
-0.020784126429280927
-0.022111604133265263
-0.02345516229267701
-0.024775039441324455
-0.026059116834825233
-0.0273235747501147
-0.028583888803247092
-0.029854829949392977
-0.0311504644828407
-0.03248415403699372
-0.033868555584374606
-0.035315065377079714
-0.03682964280080501
-0.03841515085559894
-0.04007372941454764
-0.04180681368985406
-0.04361513423283906
-0.045498716933937686
-0.04745688302270465
-0.04948824906781132
-0.05159072697704699
-0.053766772679548776
-0.05606416530257408
-0.05855382575259446
-0.06130617178218173
-0.06439091648302038
-0.06787706828591596
-0.07183293096078995
-0.07632610361668304
-0.08142348070174629
-0.08719125200325457
-0.09368617755896125
-0.10088545031474898
-0.10872368006706644
-0.1171343860092746
-0.12605207256940062
-0.13541301802609448
-0.14504613151168708
-0.15475303179632718
-0.1643364237671623
-0.17360009842834626
-0.182355282088669
-0.19047345077726766
-0.1978593667600929
-0.20441919788227336
-0.21006018566602067
-0.21469065464057976
-0.21822001545219485
-0.2205587648641136
-0.2216184857565826
-0.22131184712685473
-0.21955159773553826
-0.21624190228423107
-0.2112826179212408
-0.20457462935663692
-0.19601990741749228
-0.18552150904787715
-0.1729835773088782
-0.15831134137857122
-0.14141111655203867
-0.12219030424135655
-0.10055640621576861
-0.07640823982679858
-0.049640124075288186
-0.020143158107034022
0.012336328562269948
0.04777845002710764
0.08600269648415668
0.12681477025446536
0.17000658578337882
0.2153562696406479
0.26262906214819143
0.31158563635377784
0.3619782775522837
0.41354555144171384
0.4660122358444047
0.5190893207070677
0.5724740081006955
0.6258497122207037
0.6788860593868363
0.7312388880431895
0.7825464162655932
0.8323926236863262
0.8803234293288743
0.9258706343927451
0.9685522522018155
1.0078725082042594
1.0433218399726598
1.074376897203932
1.100500541719354
1.1211418474645214
1.1357420293256821
1.1437931176195342
1.1448442232921618
1.1389544444706663
1.1266045863172256
1.108283964509602
1.0844780504824163
1.0556684714271913
1.022333010292292
0.9849456057829619
0.9439700907717925
0.8997959922717103
0.8527646161156995
0.8032127314119248
0.7514732630253995
0.6978752915780758
0.642744053448708
0.586400940772943
0.5291635014432727
0.4713454391091366
0.4132613772710793
0.35527747778291924
0.29779178896265884
0.24119911039703745
0.18589039742958727
0.13225276116073686
0.08066946844776308
0.03151994190488115
-0.01482024009689242
-0.057991249108698344
-0.09794285298602931
-0.13474635133171645
-0.16844691855405133
-0.19909656091403163
-0.22675376467483424
-0.2514834961017664
-0.27335720146233994
-0.2924528070262208
-0.30885471906524836
-0.322653823853408
-0.33394678535173483
-0.34282802523069417
-0.349392541123065
-0.3537416990472943
-0.3559833450240056
-0.3562318050759861
-0.3546078852281885
-0.3512388715077353
-0.34625852994391393
-0.33980710656817936
-0.3320307079336546
-0.3230739641350774
-0.31308246922210314
-0.30220818647390124
-0.2906095601495616
-0.2784515184213885
-0.2659054704415968
-0.25314930536457225
-0.24036739234686302
-0.2277505805472003
-0.2154835495765503
-0.2035938754405809
-0.19210389663137692
-0.18105464249519893
-0.17048452065421624
-0.16042931700652752
-0.15092219572615007
-0.14199369926303723
-0.13367174834305354
-0.12598164196799128
-0.11894404513033853
-0.11254932626402453
-0.1067651083996998
-0.10155593901714302
-0.09688374387205463
-0.09270782699606449
-0.08898487069671995
-0.08566893555749397
-0.08271146043778174
-0.08006126247290621
-0.07766649710230206
-0.075500607938391
-0.07355519747276826
-0.07181974160310288
-0.07028109450298452
-0.06892348862192785
-0.0677285346853702
-0.06667522169467409
-0.06574702973919438
-0.06499045513013968
-0.0644323932175764
-0.06404804568102723
-0.06378063612701239
-0.06357283080935412
-0.06336755020563409
-0.06310796901719498
-0.0627375161691383
-0.06219987481032515
-0.06143898231337688
-0.060399030274675414
-0.05902888204284634
-0.05734519052174173
-0.05541759604808741
-0.05331739336631406
-0.051116131444611045
-0.048885613474928015
-0.04669789687297335
-0.04462529327821869
-0.04274036855389195
-0.04111594278698221
-0.03982064154550953
-0.03885282443937826
-0.03815472271853387
-0.03766724507808532
-0.03733155443690053
-0.0370890679376095
-0.03688145694659997
-0.03665064705402082
-0.036338818073778825
-0.03588840404354191
-0.035244482899358914
-0.034391683550005124
-0.033347057684046146
-0.03212595021055893
-0.030742070652402607
-0.029210845133916797
-0.02754775468527568
-0.02576833524248738
-0.023888177647396355
-0.021922927647679193
-0.01988760460023349
-0.017785654305073825
-0.015610830461000376
-0.013356640345473798
-0.011016646141789694
-0.00858446493907737
-0.0060537687323031185
-0.0034182844222646167
-0.0006717938155950392
0.0021918663752398377
0.005177548723355057
0.008267791471851556
0.011425974816729806
0.014614804126773125
0.017796929864926904
0.02093494758830531
0.023991397948187807
0.02692876669002009
0.029709484653410244
0.03229592777213517
0.03465329191160979
0.036799666635264475
0.038799610696831556
0.04071921113700963
0.04262450009066156
0.04458145326375716
0.046655985364186026
0.04891395467094717
0.05142116455720451
0.05424336349028892
0.05744325087404815
0.06102613570751408
0.06494569322723368
0.06915370497685897
0.07360189759420233
0.07824194281124712
0.08302545745414082
0.08790400344319797
0.09282908779289371
0.0977521626118744
0.10262622881561105
0.10743618098050649
0.11219628386185033
0.11692184525402553
0.1216281180455787
0.1263303002192233
0.1310435348518335
0.13578291011445462
0.1405634592722955
0.14540016068473327
0.15030701802818738
0.15527890513037637
0.16029274259987994
0.16533160463713362
0.17037452327324423
0.17539555340434596
0.1803687921051017
0.185268378628708
0.19006849440688642
0.19474336304989592
0.19926855619765793
0.20364789892695834
0.2079124925049215
0.21209459070288572
0.21622648947071754
0.22034052693681744
0.22446908340811028
0.22864458137005902
0.2328994854866559
0.23726630260042575
0.24177593746662426
0.24642230696725423
0.25116277270269133
0.2559531807081224
0.26074941919725864
0.2655074185623492
0.2701831513741728
0.27473263238204054
0.27911191851378947
0.28327710887579366
0.2871862626995073
0.2908425414207964
0.29429474130132505
0.29759372525673466
0.3007903983811978
0.30393570794741825
0.30708064340662633
0.31027623638858914
0.31357356070160336
0.3170237323324983
0.32067589218777776
0.32452974412974184
0.3285337794981403
0.3326341593183761
0.3367770867943806
0.3409088073086185
0.34497560842208674
0.3489238198743133
0.35269981358335445
0.3562500036458011
0.35952209479814223
0.3624958296595528
0.36518492523612633
0.36760477689400006
0.3697708221778405
0.3716985408108468
0.3734034546947465
0.37490112790980157
0.3762071667148039
0.37733721954707733
0.3783069151744248
0.37913026700636476
0.3798195309445179
0.38038691473071334
0.38084466828531216
0.38120508370720574
0.3814804952738177
0.38168327944110275
0.3818258548435471
0.38192068229416715
0.3819797731111351
0.38200138911775616
0.3819685033735479
0.3818633305085781
0.38166812733144545
0.3813648898276393
0.38091590943053294
0.3802951092176572
0.379489954915945
0.3784878754495397
0.3772767858485402
0.37585993066635204
0.37425800591409236
0.3724926203228901
0.37058534582108343
0.3685577175342235
0.36643123378506903
0.36422735609359036
0.361967509176966
0.359673080949589
0.3573647120986454
0.3550411144779079
0.3526754540354743
0.3502394207711507
0.3477046678819495
0.34504281176209417
0.3422254320030179
0.33922407139336785
0.33601023591899765
0.3325553947629716
0.3288317575963585
0.32483664025357223
0.32059731805562275
0.3161427869645923
0.3115020061375517
0.30670389680140364
0.3017773404219809
0.296751181182968
0.29165422646525735
0.28651524684695895
0.2813625808560174
0.2762110954693427
0.2710592099313012
0.2659043087184191
0.26074373950442636
0.25557481316026626
0.25039480375408907
0.24520094855126212
0.239990448014357
0.2347604658031572
0.22950829106883386
0.22423697948888247
0.21895680841743437
0.21367847630464687
0.2084126447978845
0.2031699387417295
0.1979609461779672
0.1927962183455962
0.18768626968082197
0.18264157781706805
0.1776723876826564
0.172781529403081
0.16796234730890647
0.16320753086339929
0.15850973272702923
0.15386156875747845
0.14925561800963766
0.14468442273561385
0.14014048838471818
0.13561628360347436
0.1311041954916747
0.12659479731114848
0.12207629508993438
0.11753670007383599
0.11296398670586433
0.10834609262624763
0.10367091867241751
0.09892632887901862
0.09410015047790318
0.08918017389814026
0.08415471030820922
0.07903541537727408
0.07386530718328885
0.06868957195332628
0.06355335911166354
0.05850178127979008
0.05357991427640386
0.04883279711741836
0.04430543201595252
0.04004278438233655
0.03608888906386267
0.03244811280837858
0.029070283123026848
0.02590122774535185
0.022886737610107847
0.019972566849263882
0.017104432791994847
0.014228015964686539
0.011288960090934216
0.008232872091548146
0.005006006335873656
0.001586708800529797
-0.0020014618471865604
-0.005731578420640142
-0.009576750535989578
-0.013510124612182182
-0.01750488387095602
-0.021534251416516097
-0.025571499474585056
-0.02958994015335558
-0.033562930575073764
-0.03746427355372402
-0.041268398495961714
-0.044949817531564434
-0.04848307959310007
-0.05184277041592311
-0.055003512538181504
-0.057939965300811504
-0.06062682484754028
-0.06303898844422087
-0.06515277329015368
-0.06697593725470938
-0.06856231957424755
-0.06996946011140502
-0.07125488804857008
-0.07247612188788963
-0.07369066945126306
-0.07495602788034565
-0.07632968363654467
-0.07786911250102468
-0.07963100944288735
-0.08162871201530425
-0.08380995513616582
-0.08611700316615276
-0.08849210978569963
-0.09087751799499677
-0.09321546011398568
-0.09544815778236591
-0.09751782195959066
-0.09936665292486829
-0.1009374573501742
-0.10221005560810306
-0.1032216451813405
-0.10401434945644239
-0.10463028113971753
-0.10511154225723075
-0.10550022415480192
-0.10583840749800505
-0.10616816227216762
-0.10653154778237327
-0.1069702584748196
-0.10750328096263871
-0.10811355268222345
-0.10878079781955331
-0.10948472988036193
-0.11020505169013811
-0.1109214553941242
-0.11161362245731801
-0.11226122366447194
-0.11284391912009314
-0.11334156374681788
-0.11374809615252922
-0.11408037044966307
-0.1143573340670235
-0.11459792375316885
-0.11482106557641247
-0.1150456749248225
-0.11529065650622142
-0.1155749043481863
-0.11591730179804892
-0.11633652047626931
-0.11683643127559387
-0.11739624675911574
-0.11799283356595196
-0.11860304765497437
-0.11920373430480942
-0.11977172811383759
-0.12028385300019487
-0.12071692220177106
-0.12104773827621143
-0.12125331283641816
-0.12132802556556406
-0.1212959193347408
-0.12118392796605053
-0.12101897460135011
-0.1208279717022511
-0.12063782105011957
-0.12047541374607632
-0.1203676302109967
-0.12034134018551079
-0.12042319966005292
-0.12062254431999324
-0.12091841440577913
-0.12128678401480454
-0.12170361656421794
-0.12214486479092238
-0.12258647075157574
-0.12300436582259024
-0.12337447070013297
-0.12367269540012565
-0.12387510984231478
-0.12397348619431889
-0.12398775725769752
-0.12394077687958888
-0.12385538822688583
-0.12375442378623594
-0.1236607053640415
-0.12359704408645934
-0.12358623527234142
-0.12365104305205693
-0.12381404243937176
-0.12408049751369653
-0.12442387466913041
-0.12481421837260327
-0.1252215624108
-0.12561592989016002
-0.12596733323687725
-0.12624577419690036
-0.12642124383593262
-0.12646372253943194
-0.12634338728514527
-0.1260528954589826
-0.12562724729867836
-0.12510611822185455
-0.1245291729658876
-0.1239360655879089
-0.12336643946480427
-0.12285992729321407
-0.12245615108953352
-0.12219426626089766
-0.12211272899096047
-0.12222435867249652
-0.12249034581487117
-0.12286598251824286
-0.1233065542427202
-0.12376733980836231
-0.12420361139517846
-0.12457063454312829
-0.12482366815209421
-0.12491796441804053
-0.12480897565407699
-0.12447895260562197
-0.12396317528694731
-0.12330314907617271
-0.12254037271136844
-0.12171633829055505
-0.12087253127170339
-0.12005043047273448
-0.11929150807151996
-0.1186372296058816
-0.11812892315368573
-0.11778929459775783
-0.11760328407234366
-0.11755125407854448
-0.11761356047741175
-0.11777055248994722
-0.1180025726971031
-0.11828995703978176
-0.11861303481883607
-0.11895212869506902
-0.11928757855424739
-0.11960346419106356
-0.11989165005546146
-0.12014496544437224
-0.12035623301467661
-0.12051826878320643
-0.12062388212674338
-0.12066587578201966
-0.1206370458457177
-0.12053018177447036
-0.12033812111656278
-0.12006321692052702
-0.11972811977356593
-0.11935808075463637
-0.11897834430264581
-0.11861414821645203
-0.118290723654863
-0.118033295136637
-0.11786708054048255
-0.1178172911050587
-0.11790902942784573
-0.11814762807898681
-0.11849519885684433
-0.11890813385050632
-0.11934281850901124
-0.11975563164134694
-0.12010294541645251
-0.12034112536321719
-0.12042653037048026
-0.1203155126870317
-0.11996455328620018
-0.11935949335807648
-0.11855202069788716
-0.11760277850426701
-0.1165724033358009
-0.11552152511102387
-0.11451076710842252
-0.11360074596643246
-0.11285207168344007
-0.11232534761778194
-0.11208103824820949
-0.11214728870221631
-0.11247792000494107
-0.11301633701535962
-0.11370593795239786
-0.11449011439493226
-0.11531225128178985
-0.1161157269117465
-0.11684391294353005
-0.11744018623159633
-0.11784804610818334
-0.11803364962867789
-0.11801658825495637
-0.11782414969096575
-0.11748361500060325
-0.11702225860771652
-0.11646734829610299
-0.1158461452095116
-0.11518590385164046
-0.11451387208613846
-0.11385727421914682
-0.11323797677114088
-0.11266488903592702
-0.11214499306345517
-0.11168526426362532
-0.11129267140628832
-0.11097417662124476
-0.11073673539824602
-0.1105872965869933
-0.11053280239713861
-0.11058015310440972
-0.1107233922697198
-0.1109246504980588
-0.11114569192395163
-0.1113482347643496
-0.11148675187317553
-0.1115157394938524
-0.1113897595151889
-0.11106343947137895
-0.11049147254200159
-0.10962868863406551
-0.10846004089119818
-0.10704712499206125
-0.10546361927844307
-0.10378326773751706
-0.10207988000184307
-0.10042733134936534
-0.09889956270341393
-0.09757058063270413
-0.09651445735133805
-0.09580524586008063
-0.09547496694474529
-0.09544564933618817
-0.09562162477739894
-0.09590729065675196
-0.09620711000800708
-0.09642561151030944
-0.09646738948819093
-0.09623710391156741
-0.09563948039574108
-0.09457938498961206
-0.0930057775084101
-0.09098581109816073
-0.08860630983193843
-0.08595416342820213
-0.08311632725079872
-0.08017982230895808
-0.0772317352572964
-0.07435921839581454
-0.07164948966990128
-0.06918977662207046
-0.06702770259041226
-0.06510171515408356
-0.06333168550715967
-0.06163755048909825
-0.05993931258474376
-0.05815703992432442
-0.0562108662834578
-0.05402099108314331
-0.051507679389767
-0.04859130109319459
-0.045226134968425896
-0.04146218919398163
-0.03736632143942116
-0.03300545501969068
-0.028446578895120228
-0.02375674767142994
-0.01900308159972064
-0.01425276657648061
-0.009573054143581438
-0.005031238352638877
-0.0006698568824907332
0.003540515439864696
0.007642229169011217
0.01167756921414147
0.015688754839068203
0.01971793966221673
0.023811751954642697
0.028032987128785068
0.03241682624016139
0.03699439367291023
0.04178202193542417
0.04675151600309857
0.05186661482722788
0.0570912894873537
0.06238974319127022
0.06772641127501394
0.07306596120287787
0.07837329256740233
0.08361353708937959
0.08875208327761969
0.09376316567203893
0.09864737782708073
0.10341052018092493
0.1080586252999945
0.1125979578789686
0.117035014740774
0.12137652483658856
0.12562944924583416
0.12980098117618846
0.1338985435716554
0.13792413133421796
0.14186219199318115
0.14569392327828232
0.14940075504750724
0.15296434928709277
0.15636660011152034
0.15958963376352603
0.16261580861409378
0.16542771516245858
0.16800817807407376
0.17034695362370736
0.17245564162542204
0.17435042352898497
0.17604771291241003
0.177564155481965
0.1789166290721649
0.1801222436457755
0.18119834129380974
0.182162496235533
0.18303251362557157
0.18382072137257918
0.18452076401089962
0.18512260703298886
0.1856164514010743
0.18599273099139063
0.18624211180842168
0.18635549198490142
0.18632400178181302
0.18613900358838956
0.18579209164747792
0.18527305703838337
0.18456499706503207
0.18364976928320975
0.18250946337695317
0.1811264011585472
0.17948313656852602
0.1775624556756734
0.17534737667702535
0.17282114989786454
0.16996725828113227
0.1667754278399188
0.16325151859603654
0.15941504016931318
0.1552911572688557
0.1509047921199669
0.1462806244641517
0.14144309155910942
0.1364163881787366
0.13122446661312703
0.1258910367438217
0.1204413537551412
0.11490684972158097
0.10932015451272095
0.10371365551434522
0.09811949762842966
0.09256958327314901
0.08709557238287426
0.08172888240818049
0.07650068831583362
0.07144192239032156
0.06657238433901787
0.06187146081877239
0.05730903581101256
0.05285475081336549
0.04847800483965376
0.0441479544199043
0.039833513600335546
0.03550335394336429
0.031125904527604383
0.02666935201465191
0.022113684645587925
0.01748429038329151
0.012817124734971179
0.008147900724039318
0.0035120888900997014
-0.0010550827110439
-0.00551862850739232
-0.0098438054107427
-0.013996112816700521
-0.01794129261346199
-0.021657679217457336
-0.025171932575665197
-0.028522655331222044
-0.031748692611064985
-0.0348891320259352
-0.03798330367037122
-0.04107078012271852
-0.04419137644512409
-0.04738515018353628
-0.05069240136770789
-0.05414040605261255
-0.057703616942722316
-0.0613434627677329
-0.06502161474114401
-0.06869998656025364
-0.07234073440616605
-0.07590625694378626
-0.07935919532182348
-0.082662433172785
-0.0857790966129847
-0.08868003557125645
-0.09136708763543869
-0.09385022972034804
-0.09613968123022672
-0.0982459040531183
-0.10017960256086934
-0.10195172360912698
-0.1035734565373426
-0.10505623316876923
-0.10641172781046257
-0.10760889831589024
-0.10862024309236051
-0.10949698533587389
-0.11028955847824089
-0.11104692249420908
-0.11181656390146666
-0.11264449576063973
-0.11357525767529408
-0.1146519157919323
-0.11591606279999761
-0.11740201646894942
-0.1191174544555537
-0.121061758371473
-0.12323283624696521
-0.12562712265522624
-0.1282395787123919
-0.13106369207753366
-0.1340914769526647
-0.13731347408273628
-0.14071875075563947
-0.1442994552727086
-0.14806656191444048
-0.15203522486859194
-0.1562191251038004
-0.16063047013163606
-0.16527999400661353
-0.1701769573261845
-0.1753291472307418
-0.1807428774036097
-0.18642298807105853
-0.19237208339828038
-0.19858780175394156
-0.20506530893270455
-0.21179829719214233
-0.21877898533276366
-0.22599811869801947
-0.23344496917428936
-0.2411884514410264
-0.2493216360088047
-0.25762636931826355
-0.26587805485493576
-0.27385312132405526
-0.28133579325724106
-0.2881209083084265
-0.2940139176340568
-0.2988308858931069
-0.30239849124706863
-0.30455402535995507
-0.305145393398297
-0.3040311140311487
-0.3010832479146204
-0.29619862895481863
-0.2892889784778679
-0.28027663220537763
-0.26909453936147937
-0.25568626267281847
-0.24000597836857893
-0.22201847618044784
-0.20169915934263827
-0.179034044591873
-0.15401685827160624
-0.12663751163170803
-0.09689205659742525
-0.06478715723588271
-0.030340091116768407
0.006421250687751058
0.04545836360297533
0.08672212955170225
0.130152816954154
0.175680080728086
0.2232212592868988
0.2726743816339537
0.32392409489550505
0.37684443152546987
0.43131301875306166
0.48701161370665763
0.5432368627038756
0.5992947452554473
0.6545313347831672
0.708332798619938
0.7601250167036663
0.8093719794686542
0.8555771876754827
0.8982842532695313
0.9370768821072112
0.9715788739560771
1.0014541224947484
1.0264066153129436
1.0461804339114316
1.0605597537021052
1.0693710047083131
1.0724923655332805
1.069846020691217
1.061394251483319
1.0471394331218629
1.0271240347302035
1.0014306193428093
0.9701797727805636
0.9336119768652713
0.8923268347605341
0.8469659046418068
0.7981290047670203
0.7463844187199025
0.6922742565093937
0.636314459571159
0.5789948007676884
0.520778884388147
0.4621041461484734
0.4033818531913303
0.3449971040862081
0.28731092296113264
0.23067010140322017
0.1753994850704074
0.12179775593573106
0.07013742739890287
0.020664844286410154
-0.026399818380917428
-0.07086255972776836
-0.11255554902634066
-0.15133712412215744
-0.18709283640797716
-0.21967233972474573
-0.24901751973492117
-0.27521912621052214
-0.2983721959107237
-0.31857558537484104
-0.33593197092239147
-0.3505478486530515
-0.3625335344466733
-0.37200316396326405
-0.37907446612606455
-0.38386762480609415
-0.38650613495918335
-0.38711731045723696
-0.3858322849523339
-0.382786011876722
-0.37811726444281735
-0.3719686356432132
-0.3644865382506668
-0.3558212048181082
-0.3461246119535521
-0.33553969480296514
-0.3242082887750038
-0.3122760391419866
-0.2998924109563972
-0.28721068905090635
-0.2743879780383387
-0.26158520231169485
-0.24896710604414057
-0.236702253189028
-0.22489829825345115
-0.2135530168536045
-0.20270714828328562
-0.1924007122690101
-0.18267226132069736
-0.17355888073168857
-0.1650961885787389
-0.15731833572203124
-0.15025800580515508
-0.1439464152551209
-0.1384037269760639
-0.13358580228084502
-0.1294217291032834
-0.12583905865499082
-0.1227638749309945
-0.12012079470974396
-0.11783296755310096
-0.11582207580634624
-0.11400833459817696
-0.1123104918407104
-0.1106545905061431
-0.10902429017702235
-0.10742619648882473
-0.10586552504213573
-0.10434602422095599
-0.10286997519270437
-0.1014381919082164
-0.10005009777353545
-0.09874067222922017
-0.09756371244843359
-0.09654846243199551
-0.0956844631940206
-0.09494453278496162
-0.09430164064728258
-0.09372893165226492
-0.09319971377810313
-0.09268745810990263
-0.09216579883968161
-0.09160853326636983
-0.09098962179581054
-0.09028582254900969
-0.08949286619797545
-0.08861482473595349
-0.08765596673238527
-0.08662072386362349
-0.0855136909129333
-0.08433962577049144
-0.0831034494333884
-0.08181024600562536
-0.08046526269811609
-0.0790734768023552
-0.07763684683203213
-0.07615607546548073
-0.0746320219474269
-0.073065708629508
-0.07145832097027556
-0.06981120753519139
-0.0681258799966301
-0.06640401313387762
-0.06464744483313418
-0.06285706118680558
-0.06102547819236657
-0.059141618145621314
-0.057194539126193676
-0.05517229866883045
-0.05306175339135409
-0.05084996958953376
-0.048524081374677085
-0.04607129067362524
-0.043478867228756
-0.04073821411212744
-0.037872464180122224
-0.034919666757881274
-0.03191802433370774
-0.028905807211439784
-0.02592135351045539
-0.02300306916566443
-0.02018942792751409
-0.017518971361986456
-0.015030308850603072
-0.012754402655868444
-0.010660409324779553
-0.008687800501566145
-0.006775926125176959
-0.004864203950100107
-0.0028921195463566507
-0.0007992262995029083
0.0014748545893683886
0.003990434103624769
0.006807755411102012
0.009979020872943807
0.013490503408614081
0.017295937791802364
0.021348762797002888
0.02560234938317225
0.03001000069373347
0.03452495205656715
0.039100370984024135
0.04368935717291734
0.04824494250452535
0.05272551898197916
0.05713560389510292
0.061502993376742546
0.06585559599960124
0.07022125252084106
0.07462773588209315
0.07910275120945133
0.08367393581347506
0.08836885918918212
0.0932150230160601
0.09823412454900854
0.10339748653693517
0.10865030066571428
0.11393747056626281
0.11920383205395921
0.1243941531286479
0.12945313397463187
0.13432540696068343
0.1389555366400375
0.14328801975039474
0.14727681627196423
0.15096196562122988
0.15442918636194813
0.15776455083549626
0.16105406356770982
0.16438366126889384
0.1678392128338164
0.1715065193417102
0.17547131405626815
0.17981926242565094
0.18462476981276518
0.18985788089431377
0.19543181055716516
0.20126209810766013
0.2072696044547382
0.21336603814347546
0.21946254157329306
0.22547034697649454
0.23130077641825741
0.23686524179663562
0.24208406314153602
0.24696238643572305
0.25155271020162023
0.2559081358920777
0.2600818547928159
0.2641271480224362
0.26809738653241455
0.27204603110710385
0.27602663236372793
0.28009283075239183
0.28429216266067314
0.2886108624098502
0.29300016486898106
0.29741098308582703
0.30179431994102307
0.30610126814808186
0.3102830102533868
0.31429081863620195
0.31807605550866613
0.3215901729157945
0.3247896154410334
0.32768105558703825
0.33030061948137324
0.3326848943578694
0.3348705572832302
0.3368943751570381
0.33879320471175056
0.34060399251270174
0.34236377495809844
0.34410967827902655
0.3458753664913534
0.3476570986509302
0.3494287233794703
0.35116387325760656
0.3528362706988475
0.35441972794957755
0.3558881470890552
0.35721552002941687
0.35837592851567407
0.35934354412571423
0.36009423713334043
0.3606214986104147
0.3609296869997989
0.3610234077156685
0.36090735600507434
0.36058631694794396
0.36006516545708
0.3593488662781608
0.35844247398974144
0.35735113300325194
0.35608086592411164
0.3546466566119128
0.35306916600677934
0.3513692320681404
0.3495677825883022
0.34768583519244556
0.34574449733862955
0.34376496631778686
0.34176852925372675
0.3397765631031334
0.3378083683915513
0.335858152658188
0.33389824411958974
0.3318975455824006
0.3298366235878454
0.32769625317258777
0.3254571669427992
0.32310005507415684
0.32060556531184936
0.3179543029705678
0.31512788909993306
0.31212061453569084
0.3089351286080748
0.3055741874741978
0.30204050486067396
0.2983367520636268
0.29446555794868484
0.29042950895098907
0.28623114907518205
0.2818729798954152
0.2773583093843199
0.2727009449823704
0.2679217874137217
0.26304182987345864
0.258082023126172
0.25306327550596547
0.2480064529164439
0.24293237883072036
0.23786183429141372
0.2328155579106558
0.2278127165932994
0.2228527931454358
0.21792161078598526
0.21300467684513602
0.20808745311760207
0.20315534654770545
0.19819371854429738
0.19318788808574314
0.18812313171990824
0.18298468356416736
0.17775955921722106
0.1724589677589047
0.16711128401586464
0.16174520687354613
0.1563893927868992
0.15107245578038817
0.14582296744797762
0.14066945695314126
0.13564041102885724
0.13076427397761792
0.12606711896764125
0.1215429502173795
0.11716244152006766
0.11289569905039169
0.10871278655253859
0.10458372534020396
0.10047849429658898
0.09636702987440716
0.09221922609587357
0.08800493455271226
0.08369554728903163
0.07928495467064035
0.07478378951822788
0.07020304246837064
0.06555366172715006
0.060846553070160715
0.05609257984249782
0.051302562958766396
0.04648728090307584
0.041657469729048754
0.036824397051434095
0.0320077552816533
0.027233650957632208
0.022528310756349503
0.017917918924285473
0.013428617277429021
0.009086505201274627
0.004917639650828565
0.000948035150599884
-0.00279633620539471
-0.006291955419210819
-0.009552200263878992
-0.012619267697279907
-0.015536161194591839
-0.01834592666148884
-0.02109165243413237
-0.023816469279182004
-0.026562818306775246
-0.02937073157667465
-0.032284621241049784
-0.03534662555316401
-0.038552809529559626
-0.041862399865619335
-0.045233585004053674
-0.04862454511305799
-0.051993452086307956
-0.05529846954296134
-0.05849775282765405
-0.061549449010506865
-0.0644116968871198
-0.06704468429488315
-0.06944242211486713
-0.07162660883983271
-0.07361974949496265
-0.07544434083092207
-0.07712287132385456
-0.07867782117538777
-0.08013166231262972
-0.0815068583881705
-0.0828258647800788
-0.0841106435715116
-0.08537487017741208
-0.08662527276753726
-0.08786835671994972
-0.08911061913819547
-0.09035854885130133
-0.0916186264137758
-0.09289732410560692
-0.09420110593226576
-0.09553642762470425
-0.09690917584996118
-0.09831528891158704
-0.09974216620807554
-0.10117692203352187
-0.10260666240750285
-0.10401848507507516
-0.10539947950677829
-0.10673672689863227
-0.10801730017213929
-0.10922826397428125
-0.11035678359585359
-0.11139202210516447
-0.11232489694413496
-0.11314637726224107
-0.11384742393444143
-0.11441899332897233
-0.11485204861074008
-0.11513754843792962
-0.11526644319420613
-0.11522967498871713
-0.1150196953142321
-0.11465800921445181
-0.11419225739652622
-0.11367100432489145
-0.11314280618946512
-0.11265621090564648
-0.11225975811431546
-0.1120019791818338
-0.11193139720004434
-0.11209652698627144
-0.11254320396372286
-0.11326404223060653
-0.1142026376337125
-0.11530074902482661
-0.11650012698121667
-0.11774251380563186
-0.11896964352630263
-0.12012324189694078
-0.12114502639673881
-0.12197670623037121
-0.12256247948836596
-0.1228983237411613
-0.12302904052248399
-0.12300132850866043
-0.12286187810149855
-0.12265737142828753
-0.12243448234179745
-0.12223987642028017
-0.12212021096746849
-0.12212213501257665
-0.12229023405066079
-0.12262468402315578
-0.1230827893916077
-0.12362009881800885
-0.12419215290866341
-0.12475448543468494
-0.12526262247417305
-0.12567208183233436
-0.12593837303985667
-0.1260169973529093
-0.12586543497381267
-0.1254859114733347
-0.1249248749706933
-0.1242306479627322
-0.12345154467177602
-0.12263587104563178
-0.12183192475758667
-0.12108799520640963
-0.12045236351635062
-0.1199733025371411
-0.11969724585469314
-0.1196276017186138
-0.11972424456918543
-0.11994510788386482
-0.12024811686559037
-0.12059118844278176
-0.12093223126933918
-0.12122914572464491
-0.12143982391356248
-0.12152214966643628
-0.12143566427848454
-0.12117978780816656
-0.12079424102441413
-0.1203235932151635
-0.11981263042085477
-0.11930613097674471
-0.11884886551290796
-0.11848559695423533
-0.11826108052043481
-0.1182200637260315
-0.11840545687462734
-0.11881327579191701
-0.1193898040561663
-0.12007891986637824
-0.12082449371637322
-0.1215703883947882
-0.1222604589850779
-0.12283855286551229
-0.12324850970918035
-0.12343416148398695
-0.12334128428794562
-0.12296795598565052
-0.12236904224505499
-0.12160225197610323
-0.12072528638355676
-0.11979583896699388
-0.1188715955208102
-0.1180102341342176
-0.11726942519124639
-0.11670683137074242
-0.11637844413209075
-0.11629358485828636
-0.11640969693549562
-0.11668150728951567
-0.11706373514096108
-0.11751109200526334
-0.11797826968609099
-0.11841990425561065
-0.11879061207422546
-0.11904500179715624
-0.11913882461919499
-0.11906162540756221
-0.11884141033070715
-0.11850826652153224
-0.11809227340775708
-0.11762350271191815
-0.11713201845136921
-0.11664787693828074
-0.1162011267796402
-0.1158218088772524
-0.1155392419827424
-0.1153607212159564
-0.11526788052220878
-0.11524089885141053
-0.11525994744829017
-0.11530518985239258
-0.11535678189807985
-0.11539487171453111
-0.11539959972574279
-0.11535109865052774
-0.11523006144001818
-0.11503554437128134
-0.11478851319029247
-0.11451121003677096
-0.11422586934525303
-0.1139547178450921
-0.11371997456045854
-0.11354385081033991
-0.11344855020854043
-0.11345626866368143
-0.11358851207527713
-0.11384358662630242
-0.11419146108846642
-0.11460037377052533
-0.11503855527605224
-0.11547422850343747
-0.11587560864588814
-0.11621090319142834
-0.11644831192289933
-0.11655602691795933
-0.11650295877952097
-0.11628397901531788
-0.11592643151270453
-0.11545970144943402
-0.11491316629807623
-0.11431619582601799
-0.11369815209546322
-0.11308838946343315
-0.11251625458176537
-0.11201108639711498
-0.11160166735186915
-0.11129610351536863
-0.11107602292389601
-0.1109213144677645
-0.11081185933210472
-0.11072753099686439
-0.1106481952368079
-0.11055371012151671
-0.11042392601538967
-0.1102386855776418
-0.1099781946633827
-0.10963738200455175
-0.10923048653746045
-0.10877304905043886
-0.10828060262663276
-0.10776867264400604
-0.10725277677533943
-0.10674842498822976
-0.10627111954509177
-0.10583635500315726
-0.10545930783185817
-0.10514213047120091
-0.10486948777857423
-0.10462485865179065
-0.10439916563540702
-0.1041785969828605
-0.10394288622080199
-0.10367187821380208
-0.10334552916435012
-0.10294390661285706
-0.10244745703271167
-0.10184860398919401
-0.10115620061310476
-0.10038039789979945
-0.09953145818255556
-0.09861975513257062
-0.09765577375895974
-0.09665011040876116
-0.09561347276692954
-0.09455667985634228
-0.09349041884808086
-0.09241406949524117
-0.0913110407696315
-0.09016364269569006
-0.08895429663577163
-0.08766553529015533
-0.08628000269703555
-0.08478047176143794
-0.08314989684193871
-0.08137136116393738
-0.0794283193857311
-0.07731728922128767
-0.07505358154789793
-0.07265407312534357
-0.07013575205131835
-0.06751571776144241
-0.06481118102925539
-0.0620394639662107
-0.05921800002168792
-0.05636433398298693
-0.05349594341770861
-0.05062097228955789
-0.04773372248021639
-0.04482748368611315
-0.04189565694159751
-0.03893175461893046
-0.03592940042830088
-0.0328823294178182
-0.02978438797350261
-0.026629533819306335
-0.02341180015940152
-0.020123313292157753
-0.01675325686260177
-0.013290671639314453
-0.00972470972880692
-0.006044634575510505
-0.002239820961765529
0.0017002449921533352
0.0057859658280660815
0.010027632749861792
0.014435271298902198
0.019009536202227312
0.023736618660503726
0.028601363939623092
0.03358850596756891
0.03868266733438872
0.04386835929222689
0.0491337632462035
0.054473747018215724
0.05986454942784417
0.06528100932970352
0.07070422506724493
0.07612507080909847
0.0815355420857213
0.08692791169794137
0.09229472971692543
0.09762882348419301
0.10292329761162983
0.10817153398146016
0.11336719174626156
0.11850411887011811
0.12357037352494406
0.12854442234436564
0.13340410354567803
0.13812753261652877
0.14269310231493051
0.14707948266923226
0.1512656209781513
0.15523074181074586
0.15895434700642716
0.16241644968107558
0.16561455494104393
0.1685751335352277
0.1713276515652532
0.17390185240308695
0.17632775669106024
0.17863566234184808
0.18085614453847834
0.18302005573433916
0.1851585256531634
0.1873026312541564
0.18945762450398895
0.19158446554898448
0.19364003365926089
0.19558148537528397
0.19736625450787235
0.19895205213820102
0.20029686661779386
0.20135896356852778
0.20209688588263452
0.20246973179547234
0.20246057965714753
0.20209425537254963
0.20140004609896947
0.2004075162640493
0.19914650756578484
0.1976471389725254
0.19593980672296943
0.19405518432617283
0.19202422256153845
0.18987798536917777
0.18763269740675845
0.18527775851443978
0.1827951651893372
0.1801710755635865
0.17740122260102464
0.1744811631345838
0.17140624189944229
0.16817160663423125
0.16477225338458956
0.1612030048851847
0.15746083614004397
0.15354685427769607
0.14946242053247202
0.14520868404097415
0.14078658184204706
0.13619683887680395
0.13143996798861532
0.12651626992309697
0.12142583332813368
0.11616867452847585
0.11075976465719492
0.1052424239304607
0.09966292038492333
0.09406730995950294
0.08850143649537787
0.08301093173596961
0.0776412153269704
0.07243749481632945
0.06744476565424017
0.06270759836217729
0.058245164834361415
0.05402781039806232
0.050020124642355876
0.04618648505856376
0.04249105704027725
0.03889779388334437
0.0353704367858581
0.03187251484818515
0.028367345072933123
0.02481811274209387
0.021198201475015263
0.017501380614240097
0.013723627759073544
0.009860708411077198
0.005908175974059659
0.001861371754100817
-0.002284575040476548
-0.006534747299081401
-0.010894440008866725
-0.015369002625292817
-0.01994156617334169
-0.024549976515540455
-0.029126783863964775
-0.03360475052841915
-0.037916850916464274
-0.041996271533394795
-0.04577641098224836
-0.049191747744828075
-0.052194305568966155
-0.05472160657428209
-0.056744611499645894
-0.058321014036562216
-0.059520169310649934
-0.06041239988492975
-0.06106899575983372
-0.06156221437320594
-0.06196528060029441
-0.06235238675375647
-0.06279869258366268
-0.06338016176083285
-0.06414527700884542
-0.06508282764265623
-0.0661747813371647
-0.06740407320468293
-0.06875460579492798
-0.0702112490950258
-0.07175984052951448
-0.07338718496033654
-0.07508105468684743
-0.07683020203392121
-0.0786267857931808
-0.08046926531463298
-0.08235777244415268
-0.0842934064650239
-0.08627823409794286
-0.0883152895010092
-0.09040857426973718
-0.09256305743704585
-0.09478467547326196
-0.09708039434702717
-0.09947161135165661
-0.1020108830996846
-0.10475584248877443
-0.10775640561641749
-0.1110619927919413
-0.11472987410804181
-0.1188098037948662
-0.12334394028363825
-0.12836684620663014
-0.13390543108571754
-0.13996500459204883
-0.14651107204735483
-0.15349703157515002
-0.16086868549999706
-0.16856424034752285
-0.17651430684443858
-0.1846418999184953
-0.1928624386985344
-0.20108375351203858
-0.20920611333449246
-0.21712398687962234
-0.22472846652187242
-0.23190365702095925
-0.2385260673376823
-0.2444646106338831
-0.24958060427248935
-0.2537277698174787
-0.2567522330338964
-0.25849252388786126
-0.25877962623857154
-0.25745264618458985
-0.2543811340698662
-0.2494326858714347
-0.24272763835546457
-0.23438423796628366
-0.224190350872493
-0.21196375127671435
-0.1975529991588444
-0.1808374402760392
-0.16172713119127582
-0.14013561806647454
-0.11593945732151008
-0.08903565100314018
-0.05935198693538357
-0.0268470387194264
0.008489834266213999
0.04663848686576004
0.08754798814628824
0.1311366213974817
0.17729182164518373
0.22584381513644416
0.2765247251948223
0.3290253254571533
0.3830056037828866
0.4380947622542167
0.49389121717623274
0.54996259907658
0.6058457527058477
0.6610467370372289
0.7150408591346302
0.7672894419620803
0.8172669478215792
0.864424142345851
0.9082197343078015
0.9481826513794971
0.9838841032795296
1.014950403709599
1.0410629829842626
1.0619583880309842
1.0774282645716273
1.0873088851973474
1.0914634950737139
1.0898057850012737
1.0823045623934162
1.0689837512763722
1.0499223922892331
1.025254642683875
0.9951697763250636
0.9599121836904217
0.9197813889574447
0.8751441268490713
0.8264555525367928
0.7742316211000188
0.7190434042310118
0.6615170902347264
0.6023339840291002
0.5422305071449176
0.4819981977256417
0.42241327231200043
0.36367105990065235
0.30605775100955146
0.24987521364051768
0.19539289477756605
0.14285438869269143
0.09247743694571069
0.04445392838413504
-0.0010501008565197648
-0.043894467353076734
-0.08396484039440637
-0.12117273319543849
-0.1554460851351905
-0.18671133436055043
-0.21491583818566767
-0.24003280663693635
-0.26206130245282744
-0.2810262410840665
-0.296978390693491
-0.30999437215612025
-0.3201766590591779
-0.3276535822203292
-0.332585471300766
-0.3351768192891313
-0.3355446465325761
-0.3336780396806403
-0.3298293361185112
-0.3242506543057718
-0.31718265917343935
-0.3088545621239951
-0.29948412103137495
-0.2892776351856879
-0.278421421697923
-0.26706425781776216
-0.25533849650350415
-0.24336503718489902
-0.23125332576311358
-0.21910135461079763
-0.20699566257205074
-0.19501133496238982
-0.18321200356882475
-0.171649853100698
-0.16038088001580328
-0.14949757792205212
-0.13909037753369394
-0.12923825603646394
-0.12000873708751367
-0.11145789081546996
-0.10363033382040616
-0.09655922917382731
-0.09026628641870789
-0.08476175504228742
-0.0800229740264942
-0.07594744751862209
-0.07242922012524272
-0.06938059387280378
-0.06671560591859088
-0.06434917706824994
-0.06219711177580738
-0.0601760981436581
-0.05820370792256069
-0.05619840155584132
-0.05410366553608191
-0.051943855240478495
-0.04976075204662975
-0.047597020980500414
-0.04549621071642945
-0.0435027535771248
-0.041661965533663164
-0.04002004620549371
-0.03862407886043252
-0.037522027559937776
-0.03674158396229113
-0.0362393313508076
-0.03595743708542942
-0.035838952174468724
-0.035827811274605624
-0.035868832690893436
-0.03590771837675275
-0.035891053933975146
-0.035766308612724
-0.03548183620569929
-0.034998036225583194
-0.03431520803054316
-0.03344305439125065
-0.03239216172675107
-0.031174000104455802
-0.029800923240149508
-0.02828616849798709
-0.02664385689048981
-0.0248889930785529
-0.023037465418653685
-0.021107167658003762
-0.01912090501285844
-0.01710327004734118
-0.015079738973949987
-0.0130766716535531
-0.011121311595384199
-0.009219353633982182
-0.007367996127145075
-0.005584317747139057
-0.0038854562383974743
-0.0022807797160971054
-0.0007508498466440505
0.0007303703152693715
0.002188863258704231
0.0036505570164638455
0.005141325165099321
0.006686986824915087
0.008313306659955473
0.010045994878020301
0.011910707209185922
0.013929173279639537
0.016108396255943777
0.018451849889923204
0.020962953477150548
0.023645071856953092
0.02650151541239622
0.029535540070303037
0.03275034730123679
0.0361490841195087
0.03973484307942392
0.04350537863472267
0.04743781970579122
0.05150423512616776
0.055676639273127194
0.05992699206770349
0.06422719897466961
0.0685491110025463
0.07286452470361078
0.07714518217387953
0.0813627710531162
0.08549683085186513
0.0895584719325012
0.09356665652818404
0.09754029241581078
0.10149823291602637
0.10545927689323338
0.10944216875557256
0.11346559845493132
0.11754820148695638
0.12170855889102739
0.12595825200931268
0.1302802656520336
0.1346501991921445
0.13904359754114148
0.1434359511542564
0.14780364449727404
0.15213152694336268
0.15639557658468686
0.16056887683583798
0.16462453462905483
0.16855033425161112
0.17239595508270544
0.17622742668759328
0.1801108022397134
0.1841121584301767
0.18829759546773642
0.19273323707882228
0.19748523050751016
0.2026197465155357
0.20820297938230667
0.21427261721026294
0.2207426102494331
0.22749338101399838
0.2344053749242941
0.24135906091833184
0.24823493145176884
0.2549135024979221
0.26127531354778105
0.2672009276099767
0.2725709312108175
0.27729961804811154
0.2814514345744747
0.28513266154074657
0.28844960497515276
0.2915085944235764
0.29441598290108795
0.29727814634799815
0.3002014838259806
0.3032924179070863
0.30665739468102576
0.31037836648336947
0.3144250325016483
0.31873499441760283
0.3232458748574976
0.3278953199652407
0.33262099940241513
0.33736060634825205
0.3420518574996422
0.34663249307114585
0.35104027679497224
0.35522384156018144
0.3591828778496668
0.3629320968747132
0.36648623538795455
0.36986005365967367
0.3730683354778138
0.3761258881479857
0.37904754249345113
0.3818481528551314
0.38454259709161476
0.3871427841347323
0.38964617742907426
0.3920458966744543
0.39433508417587276
0.3965069057559951
0.3985545507551401
0.4004712320312868
0.4022501859600778
0.40388467243480886
0.40536797486644116
0.40669537024255853
0.40787194770644625
0.40890585437131594
0.40980526179111204
0.410578365037438
0.4112333826995589
0.41177855688439724
0.41222215321653644
0.4125724608382174
0.41283779240934126
0.41301998290806236
0.41308949236951503
0.4130325046888258
0.41283904743527844
0.41249912389021653
0.4120027130470402
0.41133976961120994
0.4105002240002445
0.40947398234371946
0.40825092648327055
0.4068235959389783
0.4051985810076999
0.40338705023543536
0.40140015083743924
0.3992490057410298
0.3969447135855835
0.39449834872253
0.39192096121536313
0.38922357683963527
0.3864171970829509
0.3835121302402054
0.38051505229213034
0.37743140386337043
0.37426660040031773
0.37102603306141396
0.3677150687171677
0.36433904995014676
0.3609032950549675
0.3574130980383179
0.35387372861893135
0.3502893048873362
0.34665767012982435
0.3429744893302145
0.3392354011767201
0.33543602006961337
0.3315719361212142
0.3276387151559154
0.3236318987101539
0.3195470040324355
0.3153795240833255
0.31112599920909817
0.30678905374221704
0.3023734486687099
0.29788392318823054
0.29332519221250725
0.2887019463653106
0.2840188519824822
0.2792805511119221
0.2744916615135763
0.26965677665946175
0.2647804041370044
0.25986666629226407
0.25491953010699725
0.24994293808980894
0.24494080846137467
0.2399170351544292
0.23487548781375245
0.22982001179619613
0.22475442817066976
0.21968253371812885
0.21460821757950782
0.20953604744628115
0.20447082868140223
0.19941734280485948
0.19438034704868717
0.18936457435699028
0.18437473338593321
0.1794155085037251
0.17449155979065126
0.16960752303903803
0.1647682958391151
0.15998052408781996
0.15525150742431415
0.15058852256656804
0.14599882194461078
0.14148963370051792
0.13706816168843955
0.13274158547456827
0.1285170603371671
0.12440171726655734
0.1204001045754555
0.11650044328184225
0.1126845309381729
0.10893412567580275
0.10523096133814597
0.10155674748066403
0.09789316937088767
0.09422188798840657
0.09052454002485757
0.08678273788395062
0.08298184053759977
0.07913189911235587
0.07525289484382662
0.0713648120203052
0.06748761064215333
0.06364122642179085
0.05984557078368745
0.056120530864382435
0.05248596951246251
0.04896172528858166
0.04556541893399075
0.04229985597056963
0.03916170606140363
0.036147354617577336
0.03325095203883856
0.030466405043624415
0.027787784727873747
0.025209172946239825
0.0227246623120824
0.020328356197461202
0.018014138425284126
0.01577430574752422
0.013600488016398071
0.011484321908562543
0.009417454487049054
0.007391543573601521
0.005398257748670822
0.00342927635140893
0.0014762894796802046
-0.0004690020099443787
-0.0024129225330038863
-0.004347764242894418
-0.006259712082993609
-0.008134915288284835
-0.009959512335044721
-0.011719630940847407
-0.013401388064555887
-0.014990889906326705
-0.016474231907613233
-0.017837498751156818
-0.01906901120676205
-0.02017358914577247
-0.021163404153252883
-0.022050650992394734
-0.022847513667679793
-0.02356616542488341
-0.02421876875107647
-0.02481747537461943
-0.025374426265169624
-0.02590175163367482
-0.026411454396804722
-0.02691464522775088
-0.027422020906088904
-0.027944265372061565
-0.02849205180720707
-0.029076042634354163
-0.029706889517627164
-0.03039523336244164
-0.03115170431550652
-0.03198692176482568
-0.03290781578143279
-0.03389265729698404
-0.03490627112692202
-0.03591339410374764
-0.03687875230125632
-0.037767061034536004
-0.0385430248599667
-0.03917133757522385
-0.03961668221927459
-0.03984373098691411
-0.0398242085005661
-0.039586484710944954
-0.03918616312193006
-0.03867901002147624
-0.03812078093883156
-0.03756722064453787
-0.03707406315042917
-0.03669703170963389
-0.036491838816572725
-0.036514186206959884
-0.03681090629908371
-0.03735564381413472
-0.038085955874498166
-0.03893913531561647
-0.03985246421422502
-0.04076321388835228
-0.041608644897320836
-0.04232600704174447
-0.0428525393635318
-0.04312547014588443
-0.04308982549951183
-0.04275707379440993
-0.042172258953385396
-0.041380673454466714
-0.04042759901697505
-0.03935830660152523
-0.03821805641002487
-0.03705209788567458
-0.03590566971296941
-0.03482399981769622
-0.033849472113116716
-0.03299961378265393
-0.0322790688738338
-0.03169236190142561
-0.031244006621491557
-0.03093850603138701
-0.030780352369760948
-0.030774027116554824
-0.030924000993004117
-0.03123473396163661
-0.031707856460831074
-0.032319510527055235
-0.03303229798969242
-0.03380868523523282
-0.03461112789146014
-0.03540207082745081
-0.03614394815357487
-0.03679918322149503
-0.037330188624167794
-0.037699366195842784
-0.03787334114318936
-0.037858182796984066
-0.037681423268470175
-0.03737080317964115
-0.03695406900702375
-0.0364589606217474
-0.03591320713623517
-0.03534452690420322
-0.034780627520660336
-0.034249205821909115
-0.033775752042847204
-0.03336464553698718
-0.03300848602286929
-0.03269973469401832
-0.03243084198525244
-0.03219424757268333
-0.03198238037371504
-0.03178765854704562
-0.03160248949266598
-0.03141926985185994
-0.031230660700458948
-0.031032039982612163
-0.030820333892094744
-0.030592332092595757
-0.0303438465143901
-0.03007193090266182
-0.02977394976157621
-0.029447255839455472
-0.02908919012877973
-0.028697081866186004
-0.028269115133420643
-0.02781232465140363
-0.027338923721406398
-0.02686117951504532
-0.02639134744809422
-0.02594167118048378
-0.02552438261630302
-0.02515170190379734
-0.02483583743537021
-0.024588985847582793
-0.02442162812279676
-0.024326249459251912
-0.024284531818682998
-0.024277998714364188
-0.024288161903727824
-0.024296521388362573
-0.02428456541401524
-0.024233770470590305
-0.024125601292148732
-0.02394151085690954
-0.023665015636266905
-0.023302233282585745
-0.02287317148194118
-0.022398028855148324
-0.021896992267180452
-0.02139023682716818
-0.020897925888398842
-0.020440211048318044
-0.020037232148528514
-0.01970911727478991
-0.01947376322361595
-0.0193240786440342
-0.019237230223112377
-0.019190127429437397
-0.019159667975752755
-0.019122737818960095
-0.019056211160118602
-0.018936950444444135
-0.018741806361310787
-0.018447617844249316
-0.018033853711972154
-0.0175106801042512
-0.01690806371269389
-0.016256289678193182
-0.01558563138580037
-0.01492635046472282
-0.014308696788326195
-0.013762908474132878
-0.013319211883823363
-0.013007821623235443
-0.012856090255742223
-0.012857116815104014
-0.012981359750500573
-0.01319886371389872
-0.013479661601423845
-0.01379377455335717
-0.014111211954138576
-0.014401971432365216
-0.014636038860791008
-0.01478338835632788
-0.01481647281977716
-0.014738664263709046
-0.01457425976511566
-0.014347940457919806
-0.014084375720202397
-0.013808223174201988
-0.013544128686313507
-0.013316726367090106
-0.013150638571242577
-0.013070475897637938
-0.01309813970216795
-0.013220873699879156
-0.013401890584517403
-0.013603908941734938
-0.01378962669701502
-0.01392169440269875
-0.013962741950958571
-0.01387538747812407
-0.013622237364683413
-0.013165886235280842
-0.012472062566541299
-0.011548518987718392
-0.01044010114077169
-0.009185797426269297
-0.007820077798405755
-0.006377515255847622
-0.004892785841736393
-0.0034006686436869877
-0.0019360457937873908
-0.0005339024686002308
0.0007724709025541468
0.001974405764351657
0.0030811091729328974
0.00410209059245461
0.005046756442599934
0.005924410098580467
0.006744251891132265
0.007515379106517137
0.008246785986526783
0.00894736372847529
0.009626495544951676
0.010301935442795795
0.01099764439615052
0.011737630800974312
0.012545800008748853
0.013445954326481437
0.014461793016710562
0.015616912297495358
0.016934805342426775
0.01843886228061873
0.020151279023444345
0.02207805201494582
0.024212800569003726
0.026548731906027804
0.02907895020196019
0.03179645658826162
0.0346941491519272
0.03776482293547258
0.0410011699369395
0.04439577910990252
0.04794028992950421
0.05161329851426142
0.055383193831651155
0.05921799347149181
0.06308561104540442
0.06695385625847841
0.07079043573901486
0.07456295307085033
0.07823890879333922
0.08178570040136152
0.08517333264859246
0.08841467018688144
0.09155682453093278
0.09464776477027685
0.09773535694997001
0.10086736407060633
0.10409144608829515
0.10745515991467217
0.11100595941691105
0.11479119541769613
0.11885585556469923
0.12321079024177131
0.1278533768837804
0.13275411281828833
0.13787808160910325
0.14319065803697412
0.14865750809960407
0.15424458901161994
0.15991814920460728
0.16564472832707935
0.17139130281337994
0.1771276249042907
0.1828258206467519
0.1884583716875593
0.19399805089046318
0.1994179223361371
0.20469134132221306
0.209791954363251
0.21469369919075246
0.21937080475317233
0.2237990976995453
0.22797785354441483
0.23192651302088363
0.23566545301576755
0.23921534163283942
0.2425971381928016
0.2458320932332983
0.2489417485089243
0.25194793699120605
0.2548727828686107
0.2577375312577632
0.2605421641753984
0.2632680158268811
0.2658960671484108
0.2684075902931282
0.2707841404936982
0.27300753165002556
0.2750598607415329
0.276923515964589
0.2785811767324976
0.2800165237622813
0.2812271265282707
0.28222307803152735
0.2830151985720951
0.28361459966695696
0.28403268405003734
0.28428114567220253
0.2843719697012589
0.2843174325219544
0.28413010173597797
0.2838217512448981
0.2833828328532946
0.2827841834129297
0.28199618822904077
0.28098952382380055
0.27973515793632975
0.27820434952268325
0.27636864875586237
0.2741998970258097
0.2716702269394027
0.2687534442093761
0.2654499272679323
0.2617867582005182
0.25780321519866856
0.25353894638699226
0.24903333237193964
0.24432548624179135
0.2394542535666489
0.23445821239845543
0.22937567327098507
0.224244167680317
0.21908990887370236
0.21392817465018388
0.20877354036109413
0.20364031383959608
0.19854253540067215
0.19349397784114747
0.1885081464396788
0.18359827895674027
0.17877734563465553
0.1740576127674186
0.16944125040925756
0.1649204471954888
0.1604867107782735
0.15613128129162085
0.1518451313513538
0.14761896605513905
0.14344322298247486
0.1393080721946768
0.1352034162349055
0.13111905279592195
0.1270483337510683
0.12298821032778304
0.11893553793817864
0.11488690447621135
0.11083863031766761
0.10678676832015367
0.10272710382311817
0.09865515464784046
0.09456617109742015
0.09045587672626806
0.08633789712646962
0.08224441191163441
0.07820820439424059
0.07426179036858799
0.07043741811081691
0.0667670683788984
0.06328245441262556
0.06001502193363466
0.05699594914538119
0.054254639749745925
0.05178160879507936
0.04952614517513705
0.047435295275770624
0.04545583796466267
0.043534284591319646
0.041616878987088164
0.039649597465137534
0.037578148820473604
0.03534797432993365
0.03290646619668834
0.03026559698244061
0.02750756874394606
0.024702412394879216
0.021918948404955063
0.019225484572375794
0.016689816023840565
0.014379225214541007
0.012360481928157861
0.010699843276869264
0.009460572979709923
0.008635836655764626
0.008140935494139419
0.007886618571542173
0.007783122293176438
0.007740170392738876
0.0076669757321975885
0.007472245701146041
0.0070641768174526985
0.006350452927475637
0.005239975526148931
0.003691981051873296
0.0017230624285087767
-0.000647558093335031
-0.003401170934561899
-0.006519579187577042
-0.00998509861629193
-0.013780557656133207
-0.01788929741402381
-0.022295171668406107
-0.026983044827784207
-0.031953638777250756
-0.03722606819693111
-0.04282096918028724
-0.04875949049228704
-0.055063293569420635
-0.06175459647561195
-0.06881997191139502
-0.0761765827995472
-0.08373219367372252
-0.09139210835181344
-0.09907078472711416
-0.10669414828255691
-0.11418613101115663
-0.12146783366600424
-0.12845752576032157
-0.13507064556741383
-0.14121980012069146
-0.14681476521368517
-0.1517624854000123
-0.15596625007099263
-0.15929851165059175
-0.16159468152468948
-0.1626852595072251
-0.1623979141722359
-0.16055748285386812
-0.15698597164636455
-0.15150255540407737
-0.14392357774146905
-0.1340625510330837
-0.12173124854059783
-0.10677766465615325
-0.08909580705247915
-0.06870442151984503
-0.04567937057371851
-0.019961569699721758
0.008474541593645846
0.039620047532632256
0.07343155666453732
0.10983120190859899
0.14870781327169538
0.18995993447828308
0.23350822703018106
0.27924257799432567
0.32701839814947575
0.3766566219863525
0.42794370770733314
0.48063163722680835
0.5344379161708614
0.5890455738774051
0.6441020046916375
0.699174107945899
0.753733957028262
0.8072150579477352
0.8590164404249688
0.9085026578926287
0.9550037874950762
0.9978154300885133
1.036198710241085
1.069571412069324
1.0976635080561037
1.1201315427655933
1.1367553761019873
1.14738405304031
1.1519314319297351
1.1503761844936553
1.1427617958296579
1.1291965644095412
1.1098536020792664
1.0849708340590252
1.0548502036024596
1.0198232001770422
0.9802376259097869
0.9365025697308178
0.8890919339443372
0.8385444342289092
0.78546359963712
0.7304228646236386
0.6737010619706695
0.6157861016770976
0.5571619487389498
0.4982922426432481
0.4396258637725052
0.38157918170099214
0.32453461054220506
0.26884060894922934
0.21481168011457819
0.16272837828031544
0.11283732826912678
0.06535120595338319
0.020448754665014307
-0.021724096385150486
-0.06105372715559942
-0.09746034488699647
-0.1308981122805829
-0.1612871465761414
-0.1880445434824824
-0.21120849448758136
-0.23099146408549565
-0.2476000488685584
-0.2612350411037583
-0.2720947280703015
-0.2803764973235245
-0.2862722685526055
-0.28996809354505143
-0.2916441561867291
-0.29147477246186115
-0.2896283904530184
-0.28626759034112137
-0.28154908440544624
-0.27562366217245254
-0.2686331579781593
-0.26070886659475107
-0.25197582602341967
-0.24255320636368502
-0.23255430981345093
-0.2220865706689394
-0.21125155532474993
-0.20014496227383613
-0.18885662210747364
-0.1774706471049036
-0.16607425701876669
-0.15476271553134915
-0.14362661514000277
-0.1327506804403913
-0.12221376812655958
-0.11208886699090415
-0.1024430979241466
-0.09333771391538633
-0.08482810005207492
-0.07696346133686803
-0.06976712895492454
-0.0632248008341842
-0.05731348416454735
-0.052004318234264144
-0.047262574429922245
-0.04304765623647727
-0.03930445351549714
-0.0358439888144599
-0.03255715841512553
-0.02938120014355347
-0.026286259673991383
-0.023295381731893407
-0.020437378174995767
-0.017742065506458737
-0.015240264874864254
-0.012963802074205714
-0.010945507543902885
-0.009219216368789288
-0.00781976827912108
-0.006782544828820988
-0.0061098846144033775
-0.005748390466429578
-0.005640293985568194
-0.00572883141790449
-0.005958243654945789
-0.0062737762336158
-0.006621679336259685
-0.006949207790641751
-0.007204621069943186
-0.007337361905374741
-0.007312004038743549
-0.007118246342662261
-0.006749150934117199
-0.006198784575510293
-0.005462218674665188
-0.004535529284824445
-0.0034157971046475666
-0.002101107478215729
-0.0005905503950298895
0.0011156908803145113
0.003008873669151235
0.005066032891783607
0.007261865269368832
0.009570062877644905
0.011964723221924468
0.014444142751654785
0.016997689636012968
0.019607124047985175
0.022254169481273768
0.024920501689643805
0.027586740921861887
0.030231644120379358
0.03283374145537308
0.035371526417735236
0.03782345581908671
0.04016794979176493
0.0423833917888293
0.04444811974836047
0.04634039958633328
0.04803870612982025
0.049546875101373906
0.05091537034075593
0.05219962687702351
0.05345504305994968
0.05473698056002929
0.05610076436848547
0.057601682797256595
0.05929498747900296
0.06123589336711345
0.06347929246972613
0.0660489774710028
0.06891020953133314
0.07202174144820805
0.07534228933984799
0.07883053264518745
0.08244511412388292
0.08614463985632051
0.0898876792435981
0.09363276500754486
0.09733853858209959
0.10098081041456569
0.10456856431152661
0.10811453443150638
0.1116314182537502
0.11513187657823493
0.11862853352564656
0.12213397653740553
0.12566075637564478
0.1292213871232188
0.13282894820124605
0.1365089656896572
0.14026966506351082
0.14411071346237317
0.14803179701819372
0.1520326208553342
0.1561129090905425
0.16027240483296387
0.16451087018415253
0.1688280862380487
0.1732238464283562
0.1776970165173575
0.18224456108154688
0.1868632312393986
0.19154979710177195
0.19630104777192384
0.20111379134552113
0.20598485491061558
0.21091108454765606
0.21588934532950238
0.22091650647660296
0.22598712568999343
0.2310909317408808
0.2362170662017608
0.24135468951491165
0.24649298111499582
0.2516211394290739
0.2567283818766162
0.2618039448694735
0.26683708381191146
0.2718171085132525
0.27673950881941034
0.28161293084021766
0.2864477265522458
0.2912542669244638
0.2960429419182503
0.30082416048736516
0.30560835057798214
0.3104059591286598
0.31522745207035496
0.32008328646878875
0.3249785407808373
0.32990651019499745
0.3348589485893271
0.3398276288342652
0.34480434279266475
0.3497809013197636
0.3547491342631977
0.35970089046301185
0.3646280377516369
0.3695224427137362
0.374371599896038
0.37915317624086786
0.38384351764834235
0.3884189890109671
0.3928559742136447
0.39713087613368514
0.40122011664078583
0.40510013659704197
0.4087473958569558
0.4121384310075202
0.41526390641462885
0.41814695487113607
0.4208152733018355
0.4232965776239261
0.4256186027469969
0.4278091025730337
0.42989584999642766
0.43190663690395814
0.4338692739811473
0.43581156850069225
0.4377553546219828
0.4397083495885158
0.4416762521155398
0.44366477991070336
0.44567966967405537
0.4477266770980362
0.4498115768674908
0.45194016265965564
0.45411824714416626
0.45635161219341114
0.458630309754431
0.46090629598938
0.46312589353771916
0.4652354440313027
0.46718130809438524
0.46890986534361684
0.47036751438804625
0.4715006728291193
0.4722557772606793
0.47257935604310003
0.4724444527151148
0.471889918972055
0.47096466260445524
0.4697176103952478
0.4681974561186685
0.46643786197956966
0.4644832573284339
0.4623888536947156
0.4602098158541195
0.4580012165704678
0.4557989441034589
0.45359008324442274
0.4513540207629467
0.4490700966748605
0.4467176042422489
0.44427578997343664
0.44172385362300237
0.43904094819177264
0.4362061799268146
0.43319862978368456
0.4300079792393828
0.42665169850839424
0.4231517035278725
0.4195298634812062
0.4158080007980415
0.4120078911542719
0.40815126347202946
0.40425979991970384
0.4003551359119316
0.3964588420707202
0.3925818227109405
0.38870644307478275
0.3848102928698383
0.3808709150499465
0.3768658058151829
0.3727724146118821
0.36856814413262695
0.3642303503162355
0.3597363423477901
0.3550634030880886
0.3502032282295708
0.34518728499661255
0.34005378884474624
0.33484090847576453
0.3295867658377075
0.3243294361248506
0.31910694777773374
0.3139572824831275
0.30891837517406384
0.30402809542568254
0.29930819523355523
0.29473495287673196
0.2902766298911742
0.2859014410590792
0.281577554408909
0.2772730912153559
0.27295612599937297
0.26859468652816104
0.26415675381515574
0.25961027447081503
0.25493639936816753
0.25015468440692434
0.24529157387867642
0.24037346532124448
0.2354267095187106
0.230477610501404
0.2255524255458889
0.22067736517499026
0.21587859315778035
0.21118222022359565
0.2066057597075453
0.20214120403828434
0.19777577614720768
0.19349665221195683
0.18929096165640943
0.18514578715070323
0.1810481646112228
0.1769850832005891
0.17294348532768694
0.1689102781119291
0.16487429292796632
0.16083022711660977
0.15677385596987303
0.15270090802602868
0.14860706506959648
0.14448796213133341
0.14033918748825794
0.1361562826636232
0.13193474242693984
0.12767001836048952
0.12336595500960927
0.11905286066746543
0.11476618867572774
0.11054134562230453
0.1064136913413635
0.10241853891330911
0.09859115466480195
0.09496675816875032
0.09158052224430116
0.08846756746816373
0.08564492453305245
0.08307137324231358
0.08069393249504105
0.07845957443656633
0.07631522445847624
0.07420776119860534
0.07208401654102826
0.06989077561607523
0.06757477680032356
0.06508271672266963
0.06238520525357428
0.059532186425222997
0.056589974883941775
0.05362483852230292
0.05070299847912029
0.047890629139462224
0.04525385813464411
0.0428592054064139
0.04077436190968657
0.03906492348016989
0.0377648167025493
0.03680101954738435
0.03607779094393515
0.03549940178503132
0.03497013492706752
0.03439428518999896
0.033676159357351285
0.03272007617620986
0.03143036635722911
0.029711375773417835
0.027507393292799408
0.02490229571894615
0.022010450298398397
0.018946236241270564
0.015824044749766397
0.012758280545012355
0.009863362636630322
0.007253722188089317
0.005043802326420744
0.0033480564982881576
0.00224189072963715
0.0016604731632219906
0.0015075168348486169
0.0016867467438860181
0.00210189985327028
0.0026567250895023443
0.00325498334264614
0.0038004474663332465
0.0041969022777574045
0.004348145054020029
0.004185218241490386
0.0037396320750254577
0.003066066011292116
0.002219211470522231
0.0012537718365106428
0.0002244624566204098
-0.0008139893582234277
-0.0018068443335292027
-0.0026993512312404547
-0.0034367469365134884
-0.003979907242242964
-0.0043490065499831735
-0.004578254580189539
-0.004701849089751688
-0.0047539758719953255
-0.004768808756680117
-0.004780509610001215
-0.004823228334589187
-0.004931102869509117
-0.005138259182364617
-0.005467717125668391
-0.005899291172381169
-0.006402273430139693
-0.006945944043015326
-0.007499571191514618
-0.008032411092579853
-0.008513707999586657
-0.008912694202347193
-0.009198590027108301
-0.009340603836551636
-0.009320088060690257
-0.009167007289555384
-0.008923470180509551
-0.008631573427350407
-0.008333401760310215
-0.00807102794605672
-0.007886512787692514
-0.007821905124755335
-0.007919241833217789
-0.008220547825487638
-0.008751739714587953
-0.009472572849042253
-0.010325800284353816
-0.01125416310036724
-0.012200390413362445
-0.0131071993760542
-0.01391729517759328
-0.014573371043562641
-0.01501810823598327
-0.01519417605331013
-0.015061164968796708
-0.014650148753108131
-0.014011055379804488
-0.013193800963484938
-0.012248289655183759
-0.011224413642370312
-0.010172053148948828
-0.009141076435258518
-0.008181339798074016
-0.007342687570604629
-0.006664099084289558
-0.0061374613966147145
-0.00574188630202685
-0.005456473398789968
-0.005260310321603167
-0.005132472741599892
-0.005052024366349377
-0.0049980169398556994
-0.004949490242557676
-0.004885472091329487
-0.004789690508921825
-0.004666786969982918
-0.004527478201868568
-0.004382569482138166
-0.0042428612254807865
-0.0041191489837141
-0.0040222234457847035
-0.003962870437768545
-0.003951870922870101
-0.004000001001423252
-0.004114071878456734
-0.0042827549567628015
-0.004489528585030032
-0.004717865833460827
-0.004951234909386191
-0.005173099157266695
-0.0053669170586914915
-0.0055161422323788956
-0.005604223434176377
-0.0056146045570598605
-0.005533250212785248
-0.005358004256286231
-0.005090198021533615
-0.004731158450872868
-0.004282207623778166
-0.003744662756853173
-0.0031198362038302226
-0.0024090354555704836
-0.0016135631400644238
-0.0007347170224314753
0.000220629776552894
0.001218627642506822
0.0022172878869214565
0.0031746249826064762
0.004048658265242609
0.004797411933381745
0.005378915048446405
0.005751201534730618
0.005872310179399194
0.005700284632487725
0.005207894318131645
0.00444105736015688
0.0034683711439178547
0.002358444815158175
0.0011798923824923556
1.3327174066919342e-06
-0.001108610445741883
-0.002081308509725565
-0.002848128014445216
-0.0033404306369307236
-0.0035044193494421956
-0.0033621000595580007
-0.002959607506607098
-0.002343081765659556
-0.0015586580489146502
-0.0006524667057006884
0.00032936677752526834
0.001340721777177055
0.0023354825325392226
0.003267538145767852
0.0040961446187598345
0.004808707889792553
0.0054018601559074585
0.005872249283155367
0.006216528000460186
0.006431353899615298
0.0065133894352857515
0.006459301925007736
0.006265763549187845
0.005929451351104217
0.005452809832860368
0.004869371404391171
0.004223106656780649
0.0035579987139993784
0.0029180355628883776
0.0023472100531602845
0.0018895198973981897
0.0015889676710566436
0.0014895608124610889
0.0016353116228075438
0.0020587598959967085
0.002728814232351588
0.00359245822828501
0.0045966599030984046
0.005688392138960416
0.006814632680914541
0.00792236413687382
0.008958573977622074
0.009870254536815025
0.010604403010978515
0.01111866300224872
0.011431337130319788
0.011582190670539914
0.011610416649436591
0.011552481247667876
0.01144894128780181
0.011341115325960532
0.01127031808409197
0.011277860449970445
0.011405049477197402
0.011683857338554513
0.012091572886912462
0.012585624869432743
0.013123410144814057
0.013662321737582563
0.01415974883808976
0.01457307680251345
0.014859687152858755
0.01497695757695583
0.014882261928462776
0.014546032146173341
0.014017398305013645
0.013374820157646603
0.012696803449828315
0.012061850093140557
0.011548458164993756
0.01123512190862189
0.011200331733088046
0.011522574216605443
0.012280332392978946
0.013534768072726074
0.015239737163937294
0.017308047909367928
0.01965242198353989
0.02218557722679774
0.024820227645316155
0.027469083411094927
0.030044850861954644
0.0324602325015514
0.034627926999361985
0.036476278870909415
0.03803335435850394
0.03936635966627689
0.04054258973385187
0.04162933566667493
0.04269388473601786
0.04380352037898376
0.045025522198497585
0.046427165963309744
0.04807572360800302
0.05002846062530453
0.05227707561126204
0.05478685820286275
0.05752302167889377
0.06045077548397552
0.0635353252285478
0.06674187268887673
0.07003561580706258
0.07338174869102022
0.07674546161450321
0.08009717452764446
0.08344259298590939
0.08680200020679263
0.0901957216724923
0.09364407903103236
0.0971738922144184
0.10081738713863923
0.10458697334471302
0.10849420327310508
0.11255066191542928
0.1167649176517547
0.12112441693585074
0.12560766944202692
0.130193175442263
0.1348594653638675
0.13958510218531447
0.14434868143621446
0.14912883119732678
0.15390421210057265
0.15865351732900457
0.16335813502382956
0.16801849378695327
0.17264331927715112
0.17724140352678971
0.1818215711193723
0.18639267918954996
0.19096361742313678
0.19554330805707767
0.20014070587948413
0.2047647982296033
0.20942136901288494
0.2140924566144401
0.21874952828319558
0.2233640349422302
0.22790746006578427
0.23235131967923037
0.23666716235910623
0.24082656923308637
0.24480115397999483
0.2485625628298153
0.25208761964355625
0.2553920986464211
0.2585096051399472
0.26147386883705653
0.26431865200183285
0.2670777494494989
0.26978498854642674
0.27247422921014647
0.2751793639093276
0.27793431766378984
0.2807662128327213
0.28364897212640633
0.28653158626652053
0.2893629350337973
0.2920919307601202
0.29466751832852656
0.29703867517319726
0.2991544112794627
0.300963769183806
0.30241582397385497
0.3034653876071982
0.30411305304897795
0.30438144457510535
0.30429335914178257
0.3038716262563605
0.30313910797733923
0.30211869890109294
0.30082540980366407
0.299285071596387
0.2975366452446079
0.2956153900791079
0.2935271219605357
0.29126306167321087
0.2888141723168273
0.2861712607748306
0.28332497771443427
0.28026581758660085
0.2769841186260596
0.2734700628512987
0.2697136760645563
0.26570813107116475
0.26147455568128614
0.25704812930446586
0.25246398483003535
0.24775709893107173
0.2429622920644205
0.23811422847068658
0.23324741617422187
0.22839620698314922
0.2235947964893501
0.21887352586028733
0.21423014893470932
0.20964546119400884
0.20509995992204277
0.20057398618642727
0.19604772483852445
0.19150120451346755
0.18691429763014933
0.1822667203912077
0.17753803278305716
0.17271041763692002
0.1677910203397255
0.16280016893834706
0.15775815819132244
0.1526851266409608
0.14760105661333076
0.14252577421824633
0.1374789493492973
0.13248009568381552
0.12754857068290446
0.12270257176434103
0.11795078617276744
0.11329665399359587
0.10874341365039968
0.10429416956691001
0.09995187550473383
0.09571932900922243
0.09159917140949711
0.08759388781843727
0.08370580713267099
0.07993674238292776
0.07628489446578346
0.07274638047702096
0.0693171403697834
0.06599295788095906
0.06276946053120515
0.05964211962493705
0.05660625025032017
0.05365701127928733
0.05078940536753033
0.04799935856245793
